timestamp,gsr,ecg,interval,label
1772469672110,345,-7,0,присед
1772469672211,345,-7,0,присед
1772469672311,344,-7,0,присед
1772469672412,343,-7,0,присед
1772469672502,343,-7,0,присед
1772469672547,343,-56,0,присед
1772469672548,343,-27,0,присед
1772469672549,343,-22,0,присед
1772469672550,343,-69,0,присед
1772469672551,343,-106,0,присед
1772469672552,343,-111,0,присед
1772469672553,343,-128,0,присед
1772469672554,343,-143,0,присед
1772469672555,343,-128,0,присед
1772469672556,343,-128,0,присед
1772469672557,343,-143,0,присед
1772469672557,343,-126,0,присед
1772469672559,343,-103,0,присед
1772469672560,343,-103,0,присед
1772469672561,343,-118,0,присед
1772469672562,343,-155,0,присед
1772469672564,343,-170,0,присед
1772469672565,343,-133,0,присед
1772469672566,343,-141,0,присед
1772469672575,343,-185,0,присед
1772469672576,343,-185,0,присед
1772469672577,343,-155,0,присед
1772469672578,343,-148,0,присед
1772469672579,343,-180,0,присед
1772469672580,343,-244,0,присед
1772469672581,343,-472,0,присед
1772469672581,343,-781,0,присед
1772469672582,343,-781,0,присед
1772469672583,343,-638,0,присед
1772469672584,343,-660,0,присед
1772469672585,343,-665,0,присед
1772469672585,343,-591,0,присед
1772469672586,343,-571,0,присед
1772469672587,343,-578,0,присед
1772469672588,343,-549,0,присед
1772469672589,343,-526,0,присед
1772469672590,343,-522,0,присед
1772469672591,343,-497,0,присед
1772469672592,343,-460,0,присед
1772469672593,343,-385,0,присед
1772469672594,343,-118,0,присед
1772469672595,343,210,0,присед
1772469672596,343,230,0,присед
1772469672597,343,103,0,присед
1772469672598,343,128,0,присед
1772469672599,343,155,0,присед
1772469672600,343,111,0,присед
1772469672601,343,101,0,присед
1772469672601,343,108,0,присед
1772469672603,343,74,0,присед
1772469672603,343,-9,0,присед
1772469672604,343,-47,0,присед
1772469672605,343,153,0,присед
1772469672606,343,638,0,присед
1772469672607,343,1076,0,присед
1772469672608,343,992,0,присед
1772469672609,343,442,0,присед
1772469672610,343,61,0,присед
1772469672611,343,59,0,присед
1772469672612,343,49,0,присед
1772469672613,343,-37,0,присед
1772469672614,343,-34,0,присед
1772469672615,343,-27,0,присед
1772469672615,343,-71,0,присед
1772469672616,343,-79,0,присед
1772469672617,343,-54,0,присед
1772469672618,343,-51,0,присед
1772469672620,343,-56,0,присед
1772469672621,343,-66,0,присед
1772469672622,343,-74,0,присед
1772469672623,343,-64,0,присед
1772469672624,343,-56,0,присед
1772469672624,343,-34,0,присед
1772469672626,343,-34,0,присед
1772469672703,342,-34,0,присед
1772469672821,342,-34,0,присед
1772469672896,343,-34,0,присед
1772469672997,344,-34,0,присед
1772469673086,344,39,0,присед
1772469673087,344,89,0,присед
1772469673088,344,103,0,присед
1772469673089,344,136,0,присед
1772469673090,344,123,0,присед
1772469673091,344,39,0,присед
1772469673092,344,-7,0,присед
1772469673093,344,61,0,присед
1772469673094,344,84,0,присед
1772469673095,344,-24,0,присед
1772469673096,344,2,0,присед
1772469673097,344,103,0,присед
1772469673098,344,17,0,присед
1772469673098,344,-14,0,присед
1772469673099,344,69,0,присед
1772469673100,344,39,0,присед
1772469673101,344,4,0,присед
1772469673101,344,14,0,присед
1772469673102,344,-42,0,присед
1772469673103,344,-91,0,присед
1772469673104,344,-81,0,присед
1772469673104,344,-79,0,присед
1772469673105,344,-84,0,присед
1772469673106,344,-74,0,присед
1772469673107,344,-103,0,присед
1772469673108,344,-356,0,присед
1772469673109,344,-714,0,присед
1772469673110,344,-697,0,присед
1772469673111,344,-452,0,присед
1772469673112,344,-420,0,присед
1772469673112,344,-432,0,присед
1772469673113,344,-351,0,присед
1772469673114,344,-321,0,присед
1772469673115,344,-336,0,присед
1772469673116,344,-316,0,присед
1772469673116,344,-306,0,присед
1772469673117,344,-329,0,присед
1772469673118,344,-333,0,присед
1772469673119,344,-314,0,присед
1772469673119,344,-291,0,присед
1772469673120,344,-326,0,присед
1772469673121,344,-430,0,присед
1772469673122,344,-452,0,присед
1772469673123,344,-383,0,присед
1772469673124,344,-383,0,присед
1772469673125,344,-415,0,присед
1772469673126,344,-351,0,присед
1772469673127,344,-121,0,присед
1772469673128,344,222,0,присед
1772469673129,344,329,0,присед
1772469673130,344,173,0,присед
1772469673130,344,101,0,присед
1772469673131,344,-27,0,присед
1772469673132,344,-333,0,присед
1772469673133,344,-235,0,присед
1772469673134,344,259,0,присед
1772469673135,344,358,0,присед
1772469673136,344,192,0,присед
1772469673137,344,225,0,присед
1772469673137,344,286,0,присед
1772469673138,344,316,0,присед
1772469673139,344,301,0,присед
1772469673140,344,136,0,присед
1772469673141,344,2,0,присед
1772469673143,344,163,0,присед
1772469673144,344,388,0,присед
1772469673145,344,257,0,присед
1772469673146,344,-128,0,присед
1772469673147,344,-378,0,присед
1772469673148,344,-408,0,присед
1772469673149,344,-321,0,присед
1772469673149,344,17,0,присед
1772469673150,344,544,0,присед
1772469673152,344,544,0,присед
1772469673212,344,544,0,присед
1772469673312,344,544,0,присед
1772469673411,344,544,0,присед
1772469673556,344,544,0,присед
1772469673607,344,544,0,присед
1772469673626,344,737,0,присед
1772469673627,344,358,0,присед
1772469673628,344,-148,0,присед
1772469673630,344,-279,0,присед
1772469673630,344,-232,0,присед
1772469673631,344,-291,0,присед
1772469673632,344,-319,0,присед
1772469673633,344,-274,0,присед
1772469673634,344,-274,0,присед
1772469673634,344,-284,0,присед
1772469673635,344,-262,0,присед
1772469673636,344,-249,0,присед
1772469673637,344,-254,0,присед
1772469673638,344,-247,0,присед
1772469673638,344,-235,0,присед
1772469673639,344,-225,0,присед
1772469673640,344,-212,0,присед
1772469673641,344,-205,0,присед
1772469673642,344,-205,0,присед
1772469673643,344,-192,0,присед
1772469673645,344,-183,0,присед
1772469673646,344,-180,0,присед
1772469673647,344,-170,0,присед
1772469673648,344,-145,0,присед
1772469673648,344,-103,0,присед
1772469673649,344,-44,0,присед
1772469673650,344,86,0,присед
1772469673650,344,299,0,присед
1772469673651,344,418,0,присед
1772469673652,344,371,0,присед
1772469673653,344,343,0,присед
1772469673654,344,368,0,присед
1772469673654,344,341,0,присед
1772469673655,344,291,0,присед
1772469673656,344,259,0,присед
1772469673657,344,217,0,присед
1772469673657,344,173,0,присед
1772469673658,344,150,0,присед
1772469673659,344,145,0,присед
1772469673660,344,150,0,присед
1772469673661,344,138,0,присед
1772469673662,344,91,0,присед
1772469673662,344,51,0,присед
1772469673663,344,54,0,присед
1772469673664,344,66,0,присед
1772469673665,344,51,0,присед
1772469673665,344,69,0,присед
1772469673666,344,94,0,присед
1772469673667,344,94,0,присед
1772469673668,344,178,0,присед
1772469673669,344,274,0,присед
1772469673669,344,222,0,присед
1772469673670,344,153,0,присед
1772469673671,344,220,0,присед
1772469673672,344,257,0,присед
1772469673673,344,188,0,присед
1772469673673,344,190,0,присед
1772469673674,344,249,0,присед
1772469673675,344,242,0,присед
1772469673676,344,210,0,присед
1772469673677,344,259,0,присед
1772469673678,344,415,0,присед
1772469673678,344,514,0,присед
1772469673679,344,333,0,присед
1772469673680,344,-17,0,присед
1772469673681,344,-192,0,присед
1772469673682,344,-54,0,присед
1772469673682,344,19,0,присед
1772469673683,344,-22,0,присед
1772469673684,344,128,0,присед
1772469673684,344,155,0,присед
1772469673685,344,96,0,присед
1772469673686,344,410,0,присед
1772469673706,343,410,0,присед
1772469673805,344,410,0,присед
1772469673923,345,410,0,присед
1772469673998,345,410,0,присед
1772469674098,346,410,0,присед
1772469674198,346,410,0,присед
1772469674210,346,581,0,присед
1772469674211,346,173,0,присед
1772469674212,346,-205,0,присед
1772469674213,346,-148,0,присед
1772469674215,346,-76,0,присед
1772469674216,346,-173,0,присед
1772469674216,346,-220,0,присед
1772469674217,346,-227,0,присед
1772469674218,346,-180,0,присед
1772469674219,346,-116,0,присед
1772469674220,346,-47,0,присед
1772469674220,346,143,0,присед
1772469674221,346,423,0,присед
1772469674222,346,749,0,присед
1772469674223,346,873,0,присед
1772469674224,346,420,0,присед
1772469674225,346,-252,0,присед
1772469674226,346,-393,0,присед
1772469674227,346,-215,0,присед
1772469674228,346,-269,0,присед
1772469674229,346,-284,0,присед
1772469674229,346,-158,0,присед
1772469674230,346,-244,0,присед
1772469674231,346,-254,0,присед
1772469674232,346,-42,0,присед
1772469674233,346,-215,0,присед
1772469674234,346,-541,0,присед
1772469674234,346,-442,0,присед
1772469674235,346,-316,0,присед
1772469674236,346,-200,0,присед
1772469674237,346,163,0,присед
1772469674238,346,101,0,присед
1772469674239,346,-457,0,присед
1772469674240,346,-539,0,присед
1772469674241,346,-282,0,присед
1772469674242,346,-306,0,присед
1772469674243,346,-376,0,присед
1772469674244,346,-316,0,присед
1772469674245,346,-289,0,присед
1772469674246,346,-294,0,присед
1772469674246,346,-259,0,присед
1772469674247,346,-212,0,присед
1772469674248,346,-180,0,присед
1772469674249,346,-158,0,присед
1772469674249,346,-143,0,присед
1772469674250,346,-126,0,присед
1772469674251,346,-106,0,присед
1772469674252,346,-128,0,присед
1772469674253,346,-185,0,присед
1772469674255,346,-230,0,присед
1772469674256,346,-274,0,присед
1772469674257,346,-294,0,присед
1772469674258,346,-294,0,присед
1772469674259,346,-296,0,присед
1772469674260,346,-291,0,присед
1772469674261,346,-284,0,присед
1772469674262,346,-282,0,присед
1772469674263,346,-282,0,присед
1772469674264,346,-272,0,присед
1772469674265,346,-247,0,присед
1772469674266,346,-227,0,присед
1772469674267,346,-215,0,присед
1772469674268,346,-207,0,присед
1772469674269,346,-192,0,присед
1772469674270,346,-180,0,присед
1772469674271,346,-178,0,присед
1772469674272,346,-175,0,присед
1772469674273,346,-148,0,присед
1772469674274,346,-126,0,присед
1772469674274,346,-126,0,присед
1772469674275,346,-141,0,присед
1772469674276,346,-155,0,присед
1772469674277,346,-128,0,присед
1772469674315,345,-128,0,присед
1772469674392,343,-128,0,присед
1772469674515,341,-128,0,присед
1772469674615,341,-128,0,присед
1772469674707,339,-128,0,присед
1772469674750,339,-81,0,присед
1772469674751,339,-76,0,присед
1772469674753,339,-84,0,присед
1772469674754,339,-69,0,присед
1772469674755,339,-49,0,присед
1772469674756,339,-49,0,присед
1772469674757,339,-42,0,присед
1772469674758,339,-12,0,присед
1772469674760,339,9,0,присед
1772469674761,339,12,0,присед
1772469674762,339,2,0,присед
1772469674763,339,-101,0,присед
1772469674764,339,-296,0,присед
1772469674766,339,-237,0,присед
1772469674767,339,143,0,присед
1772469674768,339,366,0,присед
1772469674770,339,296,0,присед
1772469674771,339,185,0,присед
1772469674772,339,341,0,присед
1772469674773,339,865,0,присед
1772469674777,339,1335,0,присед
1772469674778,339,1642,0,присед
1772469674779,339,1818,0,присед
1772469674781,339,1494,0,присед
1772469674782,339,969,0,присед
1772469674783,339,865,0,присед
1772469674786,339,940,0,присед
1772469674787,339,883,0,присед
1772469674788,339,915,0,присед
1772469674789,339,974,0,присед
1772469674790,339,895,0,присед
1772469674791,339,697,0,присед
1772469674792,339,361,0,присед
1772469674793,339,197,0,присед
1772469674794,339,346,0,присед
1772469674795,339,423,0,присед
1772469674796,339,410,0,присед
1772469674797,339,531,0,присед
1772469674798,339,690,0,присед
1772469674798,339,732,0,присед
1772469674799,339,494,0,присед
1772469674799,339,-61,0,присед
1772469674800,339,-338,0,присед
1772469674801,339,-61,0,присед
1772469674801,339,205,0,присед
1772469674802,339,244,0,присед
1772469674802,339,277,0,присед
1772469674803,339,348,0,присед
1772469674803,339,277,0,присед
1772469674804,339,405,0,присед
1772469674805,339,1024,0,присед
1772469674805,339,1279,0,присед
1772469674805,339,665,0,присед
1772469674806,339,249,0,присед
1772469674807,339,744,0,присед
1772469674807,339,893,0,присед
1772469674808,339,202,0,присед
1772469674808,339,-71,0,присед
1772469674809,339,121,0,присед
1772469674810,339,71,0,присед
1772469674811,339,17,0,присед
1772469674812,339,252,0,присед
1772469674813,339,484,0,присед
1772469674814,339,514,0,присед
1772469674815,339,633,0,присед
1772469674815,339,752,0,присед
1772469674816,339,935,0,присед
1772469674816,339,1627,0,присед
1772469674817,339,1744,0,присед
1772469674817,339,987,0,присед
1772469674818,339,1214,0,присед
1772469674818,339,1459,0,присед
1772469674819,339,188,0,присед
1772469674820,336,188,0,присед
1772469674904,332,188,0,присед
1772469675026,330,188,0,присед
1772469675102,328,188,0,присед
1772469675202,325,188,0,присед
1772469675301,323,188,0,присед
1772469675335,323,-138,0,присед
1772469675337,323,1276,0,присед
1772469675338,323,2142,0,присед
1772469675339,323,1937,0,присед
1772469675340,323,1845,0,присед
1772469675341,323,1919,0,присед
1772469675342,323,1125,0,присед
1772469675343,323,304,0,присед
1772469675344,323,564,0,присед
1772469675345,323,225,0,присед
1772469675346,323,-794,0,присед
1772469675347,323,-395,0,присед
1772469675348,323,-56,0,присед
1772469675349,323,-1024,0,присед
1772469675350,323,-1083,0,присед
1772469675351,323,-507,0,присед
1772469675352,323,-784,0,присед
1772469675352,323,-992,0,присед
1772469675353,323,-759,0,присед
1772469675354,323,-776,0,присед
1772469675355,323,-658,0,присед
1772469675355,323,-227,0,присед
1772469675356,323,-215,0,присед
1772469675357,323,-86,0,присед
1772469675358,323,403,0,присед
1772469675359,323,390,0,присед
1772469675360,323,418,0,присед
1772469675361,323,749,0,присед
1772469675362,323,667,0,присед
1772469675363,323,460,0,присед
1772469675364,323,420,0,присед
1772469675365,323,158,0,присед
1772469675366,323,-591,0,присед
1772469675366,323,-1118,0,присед
1772469675367,323,-967,0,присед
1772469675368,323,-1053,0,присед
1772469675369,323,-1318,0,присед
1772469675369,323,-1053,0,присед
1772469675370,323,-497,0,присед
1772469675371,323,-522,0,присед
1772469675372,323,-915,0,присед
1772469675373,323,-479,0,присед
1772469675374,323,-141,0,присед
1772469675374,323,-128,0,присед
1772469675375,323,131,0,присед
1772469675377,323,-717,0,присед
1772469675378,323,-1570,0,присед
1772469675379,323,-883,0,присед
1772469675380,323,-116,0,присед
1772469675380,323,188,0,присед
1772469675381,323,235,0,присед
1772469675382,323,-64,0,присед
1772469675383,323,64,0,присед
1772469675384,323,492,0,присед
1772469675385,323,465,0,присед
1772469675385,323,324,0,присед
1772469675386,323,274,0,присед
1772469675387,323,195,0,присед
1772469675388,323,-98,0,присед
1772469675389,323,-804,0,присед
1772469675390,323,-1155,0,присед
1772469675391,323,-922,0,присед
1772469675392,323,-799,0,присед
1772469675393,323,-395,0,присед
1772469675394,323,145,0,присед
1772469675395,323,-155,0,присед
1772469675395,323,-826,0,присед
1772469675396,323,-831,0,присед
1772469675397,323,-561,0,присед
1772469675398,323,-823,0,присед
1772469675398,323,-1066,0,присед
1772469675399,323,-1044,0,присед
1772469675400,323,-1147,0,присед
1772469675401,320,-1147,0,присед
1772469675496,316,-1147,0,присед
1772469675594,315,-1147,0,присед
1772469675694,313,-1147,0,присед
1772469675810,310,-1147,0,присед
1772469675876,310,-1105,0,присед
1772469675877,310,-937,0,присед
1772469675878,310,-930,0,присед
1772469675879,310,-940,0,присед
1772469675880,310,-851,0,присед
1772469675881,310,-714,0,присед
1772469675882,310,-534,0,присед
1772469675883,310,-452,0,присед
1772469675884,310,-544,0,присед
1772469675884,310,-690,0,присед
1772469675885,310,-692,0,присед
1772469675886,310,-393,0,присед
1772469675887,310,-113,0,присед
1772469675888,310,-118,0,присед
1772469675889,310,-158,0,присед
1772469675890,310,-153,0,присед
1772469675890,310,-217,0,присед
1772469675891,310,-205,0,присед
1772469675892,310,-76,0,присед
1772469675893,310,-54,0,присед
1772469675894,310,-185,0,присед
1772469675895,310,-351,0,присед
1772469675896,310,-556,0,присед
1772469675896,310,-714,0,присед
1772469675897,310,-601,0,присед
1772469675898,310,-383,0,присед
1772469675899,310,-319,0,присед
1772469675900,310,-254,0,присед
1772469675901,310,-175,0,присед
1772469675901,310,-232,0,присед
1772469675901,310,-217,0,присед
1772469675902,310,96,0,присед
1772469675902,310,541,0,присед
1772469675903,310,727,0,присед
1772469675903,310,333,0,присед
1772469675904,310,-380,0,присед
1772469675904,310,-710,0,присед
1772469675904,310,-620,0,присед
1772469675905,310,-625,0,присед
1772469675906,310,-705,0,присед
1772469675906,310,-660,0,присед
1772469675907,310,-603,0,присед
1772469675907,310,-603,0,присед
1772469675908,310,-578,0,присед
1772469675909,310,-539,0,присед
1772469675910,310,-522,0,присед
1772469675910,310,-509,0,присед
1772469675911,310,-479,0,присед
1772469675911,310,-452,0,присед
1772469675912,310,-435,0,присед
1772469675913,310,-413,0,присед
1772469675913,310,-378,0,присед
1772469675913,310,-333,0,присед
1772469675914,310,-259,0,присед
1772469675914,310,-76,0,присед
1772469675915,310,269,0,присед
1772469675915,310,363,0,присед
1772469675916,310,-202,0,присед
1772469675916,310,-663,0,присед
1772469675916,310,-435,0,присед
1772469675917,310,-262,0,присед
1772469675917,310,-385,0,присед
1772469675918,310,-348,0,присед
1772469675918,310,-244,0,присед
1772469675918,310,-267,0,присед
1772469675919,310,-291,0,присед
1772469675919,310,-294,0,присед
1772469675920,310,-338,0,присед
1772469675920,310,-380,0,присед
1772469675921,310,-395,0,присед
1772469675921,310,-415,0,присед
1772469675921,310,-427,0,присед
1772469675922,310,-410,0,присед
1772469675923,311,-410,0,присед
1772469676011,310,-410,0,присед
1772469676128,309,-410,0,присед
1772469676204,308,-410,0,присед
1772469676307,306,-410,0,присед
1772469676406,305,-410,0,присед
1772469676462,305,-395,0,присед
1772469676463,305,-400,0,присед
1772469676464,305,-395,0,присед
1772469676465,305,-378,0,присед
1772469676465,305,-368,0,присед
1772469676466,305,-358,0,присед
1772469676467,305,-351,0,присед
1772469676468,305,-348,0,присед
1772469676469,305,-326,0,присед
1772469676470,305,-299,0,присед
1772469676471,305,-279,0,присед
1772469676472,305,-242,0,присед
1772469676473,305,-202,0,присед
1772469676474,305,-215,0,присед
1772469676474,305,-252,0,присед
1772469676475,305,-277,0,присед
1772469676477,305,-309,0,присед
1772469676478,305,-324,0,присед
1772469676479,305,-324,0,присед
1772469676480,305,-363,0,присед
1772469676481,305,-408,0,присед
1772469676482,305,-393,0,присед
1772469676483,305,-358,0,присед
1772469676484,305,-351,0,присед
1772469676485,305,-348,0,присед
1772469676486,305,-338,0,присед
1772469676486,305,-324,0,присед
1772469676487,305,-311,0,присед
1772469676488,305,-301,0,присед
1772469676489,305,-282,0,присед
1772469676490,305,-259,0,присед
1772469676491,305,-257,0,присед
1772469676492,305,-262,0,присед
1772469676492,305,-254,0,присед
1772469676493,305,-239,0,присед
1772469676494,305,-235,0,присед
1772469676494,305,-232,0,присед
1772469676495,305,-220,0,присед
1772469676496,305,-210,0,присед
1772469676497,305,-212,0,присед
1772469676498,305,-215,0,присед
1772469676499,305,-220,0,присед
1772469676500,305,-222,0,присед
1772469676501,305,-212,0,присед
1772469676502,305,-197,0,присед
1772469676503,305,-200,0,присед
1772469676504,305,-200,0,присед
1772469676506,305,-175,0,присед
1772469676507,305,-160,0,присед
1772469676508,305,-168,0,присед
1772469676509,305,-160,0,присед
1772469676511,305,-155,0,присед
1772469676512,305,-170,0,присед
1772469676513,305,-178,0,присед
1772469676514,305,-173,0,присед
1772469676515,305,-185,0,присед
1772469676516,305,-202,0,присед
1772469676517,305,-244,0,присед
1772469676518,305,-346,0,присед
1772469676519,305,-373,0,присед
1772469676520,305,-98,0,присед
1772469676521,305,450,0,присед
1772469676522,305,848,0,присед
1772469676523,305,663,0,присед
1772469676525,305,96,0,присед
1772469676526,305,-212,0,присед
1772469676527,305,-200,0,присед
1772469676528,305,-239,0,присед
1772469676529,305,-301,0,присед
1772469676530,305,-165,0,присед
1772469676531,305,-9,0,присед
1772469676532,305,98,0,присед
1772469676533,305,304,0,присед
1772469676534,304,304,0,присед
1772469676597,301,304,0,присед
1772469676698,299,304,0,присед
1772469676798,292,304,0,присед
1772469676912,293,304,0,присед
1772469677011,296,304,0,присед
1772469677046,296,393,0,присед
1772469677047,296,415,0,присед
1772469677048,296,489,0,присед
1772469677048,296,423,0,присед
1772469677049,296,331,0,присед
1772469677050,296,336,0,присед
1772469677051,296,289,0,присед
1772469677052,296,227,0,присед
1772469677053,296,244,0,присед
1772469677053,296,242,0,присед
1772469677054,296,190,0,присед
1772469677055,296,175,0,присед
1772469677056,296,173,0,присед
1772469677057,296,150,0,присед
1772469677057,296,133,0,присед
1772469677058,296,118,0,присед
1772469677059,296,101,0,присед
1772469677060,296,74,0,присед
1772469677062,296,42,0,присед
1772469677063,296,24,0,присед
1772469677063,296,7,0,присед
1772469677064,296,-32,0,присед
1772469677065,296,-98,0,присед
1772469677066,296,-165,0,присед
1772469677066,296,-227,0,присед
1772469677067,296,-388,0,присед
1772469677068,296,-687,0,присед
1772469677069,296,-898,0,присед
1772469677070,296,-833,0,присед
1772469677070,296,-608,0,присед
1772469677071,296,-373,0,присед
1772469677072,296,-267,0,присед
1772469677073,296,-329,0,присед
1772469677074,296,-432,0,присед
1772469677074,296,-519,0,присед
1772469677075,296,-685,0,присед
1772469677076,296,-895,0,присед
1772469677078,296,-927,0,присед
1772469677079,296,-784,0,присед
1772469677080,296,-672,0,присед
1772469677081,296,-650,0,присед
1772469677082,296,-742,0,присед
1772469677083,296,-940,0,присед
1772469677084,296,-1006,0,присед
1772469677085,296,-932,0,присед
1772469677086,296,-925,0,присед
1772469677087,296,-945,0,присед
1772469677088,296,-898,0,присед
1772469677089,296,-858,0,присед
1772469677090,296,-855,0,присед
1772469677091,296,-878,0,присед
1772469677092,296,-902,0,присед
1772469677093,296,-883,0,присед
1772469677095,296,-828,0,присед
1772469677096,296,-816,0,присед
1772469677097,296,-868,0,присед
1772469677098,296,-900,0,присед
1772469677099,296,-907,0,присед
1772469677100,296,-927,0,присед
1772469677101,296,-917,0,присед
1772469677102,296,-912,0,присед
1772469677104,296,-954,0,присед
1772469677105,296,-972,0,присед
1772469677106,296,-940,0,присед
1772469677107,296,-893,0,присед
1772469677108,296,-836,0,присед
1772469677109,296,-791,0,присед
1772469677110,296,-789,0,присед
1772469677112,296,-808,0,присед
1772469677113,296,-796,0,присед
1772469677114,296,-737,0,присед
1772469677115,296,-682,0,присед
1772469677116,296,-655,0,присед
1772469677117,293,-655,0,присед
1772469677231,290,-655,0,присед
1772469677306,290,-655,0,присед
1772469677407,289,-655,0,присед
1772469677507,289,-655,0,присед
1772469677540,289,-677,0,присед
1772469677542,289,-841,0,присед
1772469677543,289,-962,0,присед
1772469677544,289,-885,0,присед
1772469677545,289,-870,0,присед
1772469677546,289,-890,0,присед
1772469677546,289,-821,0,присед
1772469677547,289,-875,0,присед
1772469677548,289,-925,0,присед
1772469677549,289,-625,0,присед
1772469677550,289,-136,0,присед
1772469677551,289,103,0,присед
1772469677552,289,-175,0,присед
1772469677553,289,-722,0,присед
1772469677554,289,-945,0,присед
1772469677555,289,-737,0,присед
1772469677555,289,-564,0,присед
1772469677556,289,-677,0,присед
1772469677557,289,-813,0,присед
1772469677558,289,-789,0,присед
1772469677558,289,-744,0,присед
1772469677560,289,-717,0,присед
1772469677561,289,-719,0,присед
1772469677562,289,-781,0,присед
1772469677563,289,-806,0,присед
1772469677564,289,-816,0,присед
1772469677565,289,-717,0,присед
1772469677566,289,-603,0,присед
1772469677567,289,-804,0,присед
1772469677567,289,-752,0,присед
1772469677568,289,-143,0,присед
1772469677569,289,150,0,присед
1772469677570,289,-4,0,присед
1772469677571,289,-106,0,присед
1772469677571,289,-225,0,присед
1772469677572,289,-316,0,присед
1772469677573,289,-336,0,присед
1772469677574,289,-559,0,присед
1772469677575,289,-690,0,присед
1772469677576,289,-499,0,присед
1772469677577,289,-435,0,присед
1772469677578,289,-427,0,присед
1772469677580,289,-217,0,присед
1772469677580,289,-168,0,присед
1772469677581,289,-351,0,присед
1772469677582,289,-395,0,присед
1772469677583,289,-341,0,присед
1772469677583,289,-395,0,присед
1772469677584,289,-467,0,присед
1772469677585,289,-440,0,присед
1772469677585,289,-368,0,присед
1772469677586,289,-623,0,присед
1772469677587,289,-1197,0,присед
1772469677588,289,-1291,0,присед
1772469677589,289,-979,0,присед
1772469677589,289,-808,0,присед
1772469677590,289,-450,0,присед
1772469677591,289,-9,0,присед
1772469677591,289,-106,0,присед
1772469677592,289,-291,0,присед
1772469677593,289,-237,0,присед
1772469677594,289,-650,0,присед
1772469677595,289,-1279,0,присед
1772469677596,289,-1375,0,присед
1772469677596,289,-1328,0,присед
1772469677597,289,-1385,0,присед
1772469677598,289,-1308,0,присед
1772469677599,289,-1241,0,присед
1772469677600,289,-1234,0,присед
1772469677601,289,-1209,0,присед
1772469677601,289,-1209,0,присед
1772469677602,289,-1187,0,присед
1772469677603,289,-1175,0,присед
1772469677604,289,-1175,0,присед
1772469677703,288,-1175,0,присед
1772469677806,283,-1175,0,присед
1772469677908,284,-1175,0,присед
1772469678013,286,-1175,0,присед
1772469678112,286,-1175,0,присед
1772469678170,286,-1197,0,присед
1772469678172,286,-1128,0,присед
1772469678173,286,-1076,0,присед
1772469678175,286,-1105,0,присед
1772469678176,286,-1076,0,присед
1772469678177,286,-1029,0,присед
1772469678178,286,-1021,0,присед
1772469678178,286,-1036,0,присед
1772469678179,286,-1034,0,присед
1772469678180,286,-977,0,присед
1772469678181,286,-898,0,присед
1772469678182,286,-823,0,присед
1772469678182,286,-804,0,присед
1772469678183,286,-848,0,присед
1772469678184,286,-781,0,присед
1772469678184,286,-653,0,присед
1772469678185,286,-687,0,присед
1772469678186,286,-883,0,присед
1772469678187,286,-937,0,присед
1772469678188,286,-603,0,присед
1772469678188,286,-551,0,присед
1772469678189,286,-1006,0,присед
1772469678190,286,-920,0,присед
1772469678191,286,-385,0,присед
1772469678192,286,-155,0,присед
1772469678193,286,-61,0,присед
1772469678194,286,-269,0,присед
1772469678195,286,-858,0,присед
1772469678196,286,-1068,0,присед
1772469678197,286,-898,0,присед
1772469678198,286,-920,0,присед
1772469678199,286,-1016,0,присед
1772469678200,286,-974,0,присед
1772469678201,286,-925,0,присед
1772469678201,286,-848,0,присед
1772469678202,286,-566,0,присед
1772469678203,286,-504,0,присед
1772469678204,286,-905,0,присед
1772469678205,286,-999,0,присед
1772469678206,286,-769,0,присед
1772469678206,286,-789,0,присед
1772469678207,286,-870,0,присед
1772469678208,286,-816,0,присед
1772469678209,286,-776,0,присед
1772469678210,286,-779,0,присед
1772469678211,286,-724,0,присед
1772469678212,286,-648,0,присед
1772469678213,286,-638,0,присед
1772469678214,286,-618,0,присед
1772469678214,286,-544,0,присед
1772469678215,286,-517,0,присед
1772469678216,286,-509,0,присед
1772469678217,286,-462,0,присед
1772469678218,286,-430,0,присед
1772469678218,286,-403,0,присед
1772469678219,286,-363,0,присед
1772469678220,286,-371,0,присед
1772469678221,286,-418,0,присед
1772469678222,286,-420,0,присед
1772469678222,286,-440,0,присед
1772469678223,286,-549,0,присед
1772469678224,286,-598,0,присед
1772469678225,286,-564,0,присед
1772469678226,286,-593,0,присед
1772469678226,286,-650,0,присед
1772469678227,286,-653,0,присед
1772469678228,286,-633,0,присед
1772469678229,286,-620,0,присед
1772469678230,286,-623,0,присед
1772469678231,286,-616,0,присед
1772469678231,286,-598,0,присед
1772469678232,286,-591,0,присед
1772469678233,286,-593,0,присед
1772469678234,285,-593,0,присед
1772469678333,288,-593,0,присед
1772469678409,287,-593,0,присед
1772469678512,285,-593,0,присед
1772469678611,283,-593,0,присед
1772469678701,284,-593,0,присед
1772469678800,284,-583,0,присед
1772469678801,284,-564,0,присед
1772469678803,284,-546,0,присед
1772469678804,284,-541,0,присед
1772469678805,284,-539,0,присед
1772469678806,284,-534,0,присед
1772469678807,284,-526,0,присед
1772469678808,284,-531,0,присед
1772469678809,284,-531,0,присед
1772469678810,284,-526,0,присед
1772469678811,284,-519,0,присед
1772469678812,284,-519,0,присед
1772469678813,284,-526,0,присед
1772469678814,284,-519,0,присед
1772469678815,284,-497,0,присед
1772469678816,284,-482,0,присед
1772469678817,284,-465,0,присед
1772469678817,284,-452,0,присед
1772469678818,284,-418,0,присед
1772469678819,284,-319,0,присед
1772469678820,284,-314,0,присед
1772469678821,284,-472,0,присед
1772469678821,284,-492,0,присед
1772469678822,284,-348,0,присед
1772469678823,284,-286,0,присед
1772469678824,284,-237,0,присед
1772469678825,284,-235,0,присед
1772469678826,284,-400,0,присед
1772469678826,284,-482,0,присед
1772469678827,284,-353,0,присед
1772469678828,284,-69,0,присед
1772469678829,284,363,0,присед
1772469678830,284,744,0,присед
1772469678830,284,598,0,присед
1772469678831,284,-64,0,присед
1772469678832,284,-403,0,присед
1772469678833,284,-279,0,присед
1772469678833,284,-284,0,присед
1772469678834,284,-447,0,присед
1772469678835,284,-546,0,присед
1772469678836,284,-529,0,присед
1772469678836,284,-479,0,присед
1772469678837,284,-435,0,присед
1772469678838,284,-351,0,присед
1772469678838,284,-304,0,присед
1772469678839,284,-373,0,присед
1772469678840,284,-472,0,присед
1772469678841,284,-497,0,присед
1772469678842,284,-437,0,присед
1772469678843,284,-324,0,присед
1772469678844,284,-244,0,присед
1772469678844,284,-267,0,присед
1772469678845,284,-373,0,присед
1772469678846,284,-445,0,присед
1772469678846,284,-420,0,присед
1772469678847,284,-398,0,присед
1772469678848,284,-400,0,присед
1772469678849,284,-363,0,присед
1772469678850,284,-222,0,присед
1772469678851,284,-94,0,присед
1772469678852,284,-200,0,присед
1772469678853,284,-306,0,присед
1772469678854,284,-247,0,присед
1772469678854,284,-247,0,присед
1772469678855,284,-301,0,присед
1772469678856,284,-311,0,присед
1772469678857,284,-351,0,присед
1772469678858,284,-388,0,присед
1772469678859,284,-383,0,присед
1772469678860,284,-398,0,присед
1772469678860,284,-470,0,присед
1772469678861,284,-507,0,присед
1772469678862,284,-475,0,присед
1772469678863,285,-475,0,присед
1772469678902,287,-475,0,присед
1772469679003,311,-475,0,присед
1772469679093,284,-475,0,присед
1772469679194,284,-475,0,присед
1772469679251,284,-452,0,присед
1772469679252,284,-462,0,присед
1772469679253,284,-452,0,присед
1772469679253,284,-418,0,присед
1772469679254,284,-393,0,присед
1772469679255,284,-383,0,присед
1772469679256,284,-390,0,присед
1772469679257,284,-395,0,присед
1772469679257,284,-380,0,присед
1772469679258,284,-366,0,присед
1772469679259,284,-371,0,присед
1772469679260,284,-361,0,присед
1772469679261,284,-306,0,присед
1772469679262,284,-272,0,присед
1772469679262,284,-309,0,присед
1772469679263,284,-343,0,присед
1772469679264,284,-358,0,присед
1772469679265,284,-361,0,присед
1772469679265,284,-321,0,присед
1772469679266,284,-294,0,присед
1772469679267,284,-306,0,присед
1772469679268,284,-311,0,присед
1772469679269,284,-294,0,присед
1772469679271,284,-286,0,присед
1772469679271,284,-277,0,присед
1772469679272,284,-254,0,присед
1772469679273,284,-237,0,присед
1772469679274,284,-232,0,присед
1772469679275,284,-237,0,присед
1772469679276,284,-242,0,присед
1772469679277,284,-237,0,присед
1772469679278,284,-222,0,присед
1772469679280,284,-220,0,присед
1772469679281,284,-225,0,присед
1772469679281,284,-225,0,присед
1772469679282,284,-254,0,присед
1772469679283,284,-343,0,присед
1772469679284,284,-343,0,присед
1772469679284,284,-51,0,присед
1772469679285,284,457,0,присед
1772469679286,284,791,0,присед
1772469679287,284,588,0,присед
1772469679288,284,29,0,присед
1772469679289,284,-259,0,присед
1772469679290,284,-205,0,присед
1772469679290,284,-227,0,присед
1772469679291,284,-306,0,присед
1772469679292,284,-264,0,присед
1772469679293,284,-210,0,присед
1772469679293,284,-212,0,присед
1772469679295,284,-200,0,присед
1772469679295,284,-192,0,присед
1772469679296,284,-183,0,присед
1772469679297,284,-131,0,присед
1772469679298,284,-160,0,присед
1772469679298,284,-249,0,присед
1772469679299,284,-235,0,присед
1772469679300,284,-180,0,присед
1772469679301,284,-180,0,присед
1772469679302,284,-170,0,присед
1772469679302,284,-136,0,присед
1772469679303,284,-138,0,присед
1772469679304,284,-118,0,присед
1772469679305,284,-56,0,присед
1772469679305,284,-89,0,присед
1772469679306,284,-133,0,присед
1772469679307,284,-17,0,присед
1772469679307,284,64,0,присед
1772469679308,284,22,0,присед
1772469679309,284,34,0,присед
1772469679310,284,51,0,присед
1772469679311,284,22,0,присед
1772469679311,284,2,0,присед
1772469679313,285,2,0,присед
1772469679394,288,2,0,присед
1772469679507,321,2,0,присед
1772469679606,337,2,0,присед
1772469679706,279,2,0,присед
1772469679803,317,2,0,присед
1772469679836,317,-32,0,присед
1772469679837,317,-59,0,присед
1772469679838,317,-64,0,присед
1772469679838,317,-98,0,присед
1772469679839,317,-143,0,присед
1772469679840,317,-175,0,присед
1772469679841,317,-242,0,присед
1772469679842,317,-282,0,присед
1772469679842,317,-254,0,присед
1772469679843,317,-247,0,присед
1772469679844,317,-249,0,присед
1772469679845,317,-222,0,присед
1772469679846,317,-145,0,присед
1772469679846,317,-103,0,присед
1772469679847,317,-217,0,присед
1772469679848,317,-291,0,присед
1772469679849,317,-217,0,присед
1772469679850,317,-207,0,присед
1772469679850,317,-277,0,присед
1772469679851,317,-254,0,присед
1772469679852,317,-220,0,присед
1772469679853,317,-269,0,присед
1772469679854,317,-274,0,присед
1772469679854,317,-173,0,присед
1772469679855,317,-178,0,присед
1772469679856,317,-269,0,присед
1772469679857,317,-225,0,присед
1772469679858,317,-188,0,присед
1772469679858,317,-282,0,присед
1772469679859,317,-262,0,присед
1772469679860,317,-180,0,присед
1772469679861,317,-269,0,присед
1772469679862,317,-267,0,присед
1772469679863,317,-113,0,присед
1772469679864,317,-247,0,присед
1772469679865,317,-408,0,присед
1772469679866,317,-230,0,присед
1772469679867,317,-165,0,присед
1772469679867,317,-286,0,присед
1772469679868,317,-274,0,присед
1772469679869,317,-284,0,присед
1772469679870,317,-423,0,присед
1772469679870,317,-405,0,присед
1772469679871,317,-173,0,присед
1772469679872,317,197,0,присед
1772469679872,317,705,0,присед
1772469679873,317,660,0,присед
1772469679874,317,-136,0,присед
1772469679875,317,-479,0,присед
1772469679876,317,-215,0,присед
1772469679876,317,-282,0,присед
1772469679877,317,-522,0,присед
1772469679878,317,-420,0,присед
1772469679879,317,-235,0,присед
1772469679880,317,-371,0,присед
1772469679880,317,-556,0,присед
1772469679881,317,-371,0,присед
1772469679882,317,-232,0,присед
1772469679882,317,-410,0,присед
1772469679883,317,-423,0,присед
1772469679884,317,-319,0,присед
1772469679884,317,-398,0,присед
1772469679885,317,-371,0,присед
1772469679886,317,-282,0,присед
1772469679887,317,-351,0,присед
1772469679888,317,-363,0,присед
1772469679888,317,-296,0,присед
1772469679889,317,-309,0,присед
1772469679890,317,-314,0,присед
1772469679891,317,-259,0,присед
1772469679891,317,-232,0,присед
1772469679892,317,-227,0,присед
1772469679893,317,-205,0,присед
1772469679907,306,-205,0,присед
1772469680005,282,-205,0,присед
1772469680107,283,-205,0,присед
1772469680195,280,-205,0,присед
1772469680294,288,-205,0,присед
1772469680376,288,-173,0,присед
1772469680377,288,-141,0,присед
1772469680378,288,-128,0,присед
1772469680379,288,-131,0,присед
1772469680379,288,-136,0,присед
1772469680381,288,-173,0,присед
1772469680382,288,-244,0,присед
1772469680383,288,-289,0,присед
1772469680384,288,-294,0,присед
1772469680385,288,-319,0,присед
1772469680386,288,-388,0,присед
1772469680386,288,-405,0,присед
1772469680387,288,-368,0,присед
1772469680388,288,-373,0,присед
1772469680389,288,-385,0,присед
1772469680390,288,-368,0,присед
1772469680391,288,-356,0,присед
1772469680391,288,-361,0,присед
1772469680392,288,-363,0,присед
1772469680394,288,-356,0,присед
1772469680394,288,-341,0,присед
1772469680395,288,-336,0,присед
1772469680396,288,-346,0,присед
1772469680397,288,-351,0,присед
1772469680398,288,-351,0,присед
1772469680398,288,-366,0,присед
1772469680399,288,-380,0,присед
1772469680400,288,-385,0,присед
1772469680401,288,-368,0,присед
1772469680402,288,-336,0,присед
1772469680403,288,-319,0,присед
1772469680404,288,-331,0,присед
1772469680404,288,-338,0,присед
1772469680405,288,-336,0,присед
1772469680406,288,-338,0,присед
1772469680407,288,-351,0,присед
1772469680408,288,-353,0,присед
1772469680409,288,-338,0,присед
1772469680410,288,-336,0,присед
1772469680410,288,-358,0,присед
1772469680411,288,-405,0,присед
1772469680412,288,-489,0,присед
1772469680413,288,-472,0,присед
1772469680413,288,-168,0,присед
1772469680414,288,333,0,присед
1772469680415,288,630,0,присед
1772469680416,288,361,0,присед
1772469680416,288,-207,0,присед
1772469680417,288,-418,0,присед
1772469680418,288,-333,0,присед
1772469680419,288,-390,0,присед
1772469680419,288,-475,0,присед
1772469680420,288,-432,0,присед
1772469680421,288,-395,0,присед
1772469680421,288,-420,0,присед
1772469680422,288,-455,0,присед
1772469680423,288,-435,0,присед
1772469680424,288,-390,0,присед
1772469680424,288,-371,0,присед
1772469680425,288,-371,0,присед
1772469680426,288,-363,0,присед
1772469680427,288,-351,0,присед
1772469680427,288,-343,0,присед
1772469680428,288,-329,0,присед
1772469680429,288,-311,0,присед
1772469680429,288,-296,0,присед
1772469680430,288,-279,0,присед
1772469680431,288,-259,0,присед
1772469680431,288,-237,0,присед
1772469680432,288,-215,0,присед
1772469680433,288,-170,0,присед
1772469680434,288,-153,0,присед
1772469680434,288,-173,0,присед
1772469680435,280,-173,0,присед
1772469680494,284,-173,0,присед
1772469680609,282,-173,0,присед
1772469680709,283,-173,0,присед
1772469680808,283,-173,0,присед
1772469680906,284,-173,0,присед
1772469680916,284,-150,0,присед
1772469680917,284,-113,0,присед
1772469680918,284,-118,0,присед
1772469680919,284,-128,0,присед
1772469680919,284,-138,0,присед
1772469680920,284,-173,0,присед
1772469680921,284,-227,0,присед
1772469680922,284,-284,0,присед
1772469680923,284,-329,0,присед
1772469680924,284,-356,0,присед
1772469680924,284,-378,0,присед
1772469680925,284,-378,0,присед
1772469680926,284,-363,0,присед
1772469680927,284,-358,0,присед
1772469680927,284,-363,0,присед
1772469680928,284,-368,0,присед
1772469680929,284,-373,0,присед
1772469680930,284,-373,0,присед
1772469680931,284,-356,0,присед
1772469680932,284,-338,0,присед
1772469680932,284,-333,0,присед
1772469680933,284,-333,0,присед
1772469680934,284,-343,0,присед
1772469680934,284,-353,0,присед
1772469680935,284,-343,0,присед
1772469680936,284,-333,0,присед
1772469680937,284,-351,0,присед
1772469680938,284,-348,0,присед
1772469680939,284,-316,0,присед
1772469680939,284,-301,0,присед
1772469680940,284,-306,0,присед
1772469680941,284,-299,0,присед
1772469680942,284,-274,0,присед
1772469680943,284,-267,0,присед
1772469680944,284,-279,0,присед
1772469680946,284,-272,0,присед
1772469680947,284,-249,0,присед
1772469680948,284,-244,0,присед
1772469680949,284,-274,0,присед
1772469680950,284,-366,0,присед
1772469680951,284,-435,0,присед
1772469680952,284,-272,0,присед
1772469680953,284,183,0,присед
1772469680953,284,667,0,присед
1772469680954,284,737,0,присед
1772469680955,284,257,0,присед
1772469680955,284,-259,0,присед
1772469680956,284,-338,0,присед
1772469680957,284,-274,0,присед
1772469680958,284,-363,0,присед
1772469680959,284,-395,0,присед
1772469680959,284,-341,0,присед
1772469680960,284,-338,0,присед
1772469680961,284,-348,0,присед
1772469680961,284,-321,0,присед
1772469680962,284,-304,0,присед
1772469680963,284,-299,0,присед
1772469680963,284,-289,0,присед
1772469680964,284,-284,0,присед
1772469680965,284,-277,0,присед
1772469680965,284,-264,0,присед
1772469680966,284,-267,0,присед
1772469680967,284,-254,0,присед
1772469680967,284,-222,0,присед
1772469680968,284,-200,0,присед
1772469680969,284,-192,0,присед
1772469680969,284,-168,0,присед
1772469680970,284,-138,0,присед
1772469680971,284,-116,0,присед
1772469680971,284,-91,0,присед
1772469680972,284,-64,0,присед
1772469680973,284,-54,0,присед
1772469680973,284,-44,0,присед
1772469681007,281,-44,0,присед
1772469681108,324,-44,0,присед
1772469681208,348,-44,0,присед
1772469681322,433,-44,0,присед
1772469681397,291,-44,0,присед
1772469681499,282,-44,0,присед
1772469681598,280,-44,0,присед
1772469681634,280,-4,0,присед
1772469681636,280,39,0,присед
1772469681637,280,39,0,присед
1772469681638,280,12,0,присед
1772469681638,280,-9,0,присед
1772469681639,280,-44,0,присед
1772469681641,280,-76,0,присед
1772469681642,280,-71,0,присед
1772469681643,280,-51,0,присед
1772469681644,280,-61,0,присед
1772469681645,280,-98,0,присед
1772469681646,280,-113,0,присед
1772469681647,280,-111,0,присед
1772469681648,280,-121,0,присед
1772469681649,280,-123,0,присед
1772469681650,280,-101,0,присед
1772469681651,280,-69,0,присед
1772469681652,280,-56,0,присед
1772469681653,280,-84,0,присед
1772469681653,280,-98,0,присед
1772469681654,280,-74,0,присед
1772469681655,280,-59,0,присед
1772469681656,280,-71,0,присед
1772469681659,280,-101,0,присед
1772469681661,280,-111,0,присед
1772469681662,280,-69,0,присед
1772469681663,280,-17,0,присед
1772469681663,280,-2,0,присед
1772469681664,280,-9,0,присед
1772469681664,280,-17,0,присед
1772469681664,280,-17,0,присед
1772469681665,280,-14,0,присед
1772469681665,280,-4,0,присед
1772469681666,280,14,0,присед
1772469681666,280,37,0,присед
1772469681667,280,32,0,присед
1772469681667,280,-32,0,присед
1772469681667,280,-128,0,присед
1772469681668,280,-89,0,присед
1772469681669,280,237,0,присед
1772469681669,280,752,0,присед
1772469681669,280,1068,0,присед
1772469681670,280,808,0,присед
1772469681670,280,217,0,присед
1772469681670,280,-12,0,присед
1772469681672,280,64,0,присед
1772469681672,280,22,0,присед
1772469681672,280,-39,0,присед
1772469681673,280,-14,0,присед
1772469681673,280,17,0,присед
1772469681673,280,42,0,присед
1772469681675,280,34,0,присед
1772469681676,280,12,0,присед
1772469681676,280,17,0,присед
1772469681677,280,9,0,присед
1772469681678,280,14,0,присед
1772469681679,280,59,0,присед
1772469681680,280,32,0,присед
1772469681680,280,-2,0,присед
1772469681681,280,89,0,присед
1772469681682,280,143,0,присед
1772469681682,280,29,0,присед
1772469681683,280,-54,0,присед
1772469681684,280,19,0,присед
1772469681685,280,71,0,присед
1772469681685,280,49,0,присед
1772469681686,280,61,0,присед
1772469681686,280,86,0,присед
1772469681686,280,86,0,присед
1772469681687,280,106,0,присед
1772469681687,280,145,0,присед
1772469681687,280,123,0,присед
1772469681688,280,89,0,присед
1772469681711,380,89,0,присед
1772469681810,372,89,0,присед
1772469681913,359,89,0,присед
1772469682007,360,89,0,присед
1772469682111,279,89,0,присед
1772469682176,279,71,0,присед
1772469682177,279,2,0,присед
1772469682178,279,-84,0,присед
1772469682179,279,-101,0,присед
1772469682180,279,-81,0,присед
1772469682181,279,-136,0,присед
1772469682182,279,-185,0,присед
1772469682183,279,-165,0,присед
1772469682184,279,-212,0,присед
1772469682185,279,-230,0,присед
1772469682186,279,-143,0,присед
1772469682187,279,-197,0,присед
1772469682188,279,-264,0,присед
1772469682188,279,-153,0,присед
1772469682189,279,-165,0,присед
1772469682190,279,-279,0,присед
1772469682191,279,-249,0,присед
1772469682192,279,-205,0,присед
1772469682193,279,-252,0,присед
1772469682194,279,-249,0,присед
1772469682195,279,-170,0,присед
1772469682196,279,-160,0,присед
1772469682197,279,-235,0,присед
1772469682198,279,-267,0,присед
1772469682199,279,-237,0,присед
1772469682199,279,-227,0,присед
1772469682200,279,-269,0,присед
1772469682201,279,-286,0,присед
1772469682201,279,-277,0,присед
1772469682202,279,-264,0,присед
1772469682203,279,-267,0,присед
1772469682204,279,-351,0,присед
1772469682205,279,-395,0,присед
1772469682206,279,-118,0,присед
1772469682206,279,405,0,присед
1772469682207,279,677,0,присед
1772469682209,279,376,0,присед
1772469682210,279,-165,0,присед
1772469682210,279,-348,0,присед
1772469682211,279,-237,0,присед
1772469682212,279,-259,0,присед
1772469682213,279,-346,0,присед
1772469682214,279,-324,0,присед
1772469682215,279,-301,0,присед
1772469682216,279,-321,0,присед
1772469682217,279,-309,0,присед
1772469682217,279,-284,0,присед
1772469682218,279,-282,0,присед
1772469682219,279,-291,0,присед
1772469682219,279,-284,0,присед
1772469682220,279,-272,0,присед
1772469682221,279,-274,0,присед
1772469682221,279,-274,0,присед
1772469682222,279,-257,0,присед
1772469682223,279,-242,0,присед
1772469682223,279,-239,0,присед
1772469682224,279,-235,0,присед
1772469682225,279,-220,0,присед
1772469682226,279,-202,0,присед
1772469682227,279,-178,0,присед
1772469682227,279,-158,0,присед
1772469682228,279,-148,0,присед
1772469682229,279,-141,0,присед
1772469682230,279,-128,0,присед
1772469682231,279,-116,0,присед
1772469682232,279,-121,0,присед
1772469682232,279,-141,0,присед
1772469682233,279,-168,0,присед
1772469682234,279,-220,0,присед
1772469682235,279,-286,0,присед
1772469682236,279,-331,0,присед
1772469682236,279,-351,0,присед
1772469682237,279,-373,0,присед
1772469682238,301,-373,0,присед
1772469682312,308,-373,0,присед
1772469682400,322,-373,0,присед
1772469682498,289,-373,0,присед
1772469682596,305,-373,0,присед
1772469682625,305,-398,0,присед
1772469682626,305,-403,0,присед
1772469682627,305,-400,0,присед
1772469682628,305,-408,0,присед
1772469682629,305,-403,0,присед
1772469682630,305,-383,0,присед
1772469682631,305,-390,0,присед
1772469682632,305,-415,0,присед
1772469682633,305,-418,0,присед
1772469682634,305,-408,0,присед
1772469682635,305,-413,0,присед
1772469682637,305,-423,0,присед
1772469682638,305,-418,0,присед
1772469682639,305,-395,0,присед
1772469682639,305,-383,0,присед
1772469682641,305,-385,0,присед
1772469682642,305,-393,0,присед
1772469682643,305,-393,0,присед
1772469682644,305,-388,0,присед
1772469682645,305,-385,0,присед
1772469682647,305,-390,0,присед
1772469682648,305,-393,0,присед
1772469682649,305,-403,0,присед
1772469682650,305,-425,0,присед
1772469682650,305,-482,0,присед
1772469682651,305,-566,0,присед
1772469682652,305,-504,0,присед
1772469682653,305,-123,0,присед
1772469682654,305,427,0,присед
1772469682655,305,665,0,присед
1772469682656,305,269,0,присед
1772469682657,305,-289,0,присед
1772469682658,305,-413,0,присед
1772469682660,305,-363,0,присед
1772469682661,305,-465,0,присед
1772469682662,305,-504,0,присед
1772469682663,305,-452,0,присед
1772469682665,305,-457,0,присед
1772469682666,305,-472,0,присед
1772469682666,305,-440,0,присед
1772469682667,305,-423,0,присед
1772469682668,305,-423,0,присед
1772469682669,305,-405,0,присед
1772469682670,305,-400,0,присед
1772469682671,305,-405,0,присед
1772469682672,305,-393,0,присед
1772469682673,305,-376,0,присед
1772469682674,305,-371,0,присед
1772469682675,305,-366,0,присед
1772469682676,305,-351,0,присед
1772469682677,305,-341,0,присед
1772469682678,305,-326,0,присед
1772469682679,305,-291,0,присед
1772469682679,305,-267,0,присед
1772469682680,305,-262,0,присед
1772469682681,305,-242,0,присед
1772469682682,305,-205,0,присед
1772469682683,305,-185,0,присед
1772469682684,305,-183,0,присед
1772469682684,305,-195,0,присед
1772469682685,305,-222,0,присед
1772469682686,305,-230,0,присед
1772469682687,305,-222,0,присед
1772469682687,305,-257,0,присед
1772469682688,305,-311,0,присед
1772469682689,305,-331,0,присед
1772469682690,305,-326,0,присед
1772469682691,305,-319,0,присед
1772469682692,305,-314,0,присед
1772469682693,305,-326,0,присед
1772469682693,305,-336,0,присед
1772469682694,305,-326,0,присед
1772469682695,305,-326,0,присед
1772469682697,295,-326,0,присед
1772469682814,280,-326,0,присед
1772469682939,289,-326,0,присед
1772469683014,272,-326,0,присед
1772469683110,274,-326,0,присед
1772469683210,274,-336,0,присед
1772469683211,274,-329,0,присед
1772469683213,274,-309,0,присед
1772469683214,274,-299,0,присед
1772469683215,274,-291,0,присед
1772469683216,274,-286,0,присед
1772469683217,274,-277,0,присед
1772469683218,274,-272,0,присед
1772469683219,274,-277,0,присед
1772469683220,274,-279,0,присед
1772469683220,274,-267,0,присед
1772469683221,274,-249,0,присед
1772469683222,274,-239,0,присед
1772469683223,274,-247,0,присед
1772469683223,274,-249,0,присед
1772469683224,274,-239,0,присед
1772469683225,274,-242,0,присед
1772469683227,274,-259,0,присед
1772469683228,274,-294,0,присед
1772469683229,274,-376,0,присед
1772469683230,274,-371,0,присед
1772469683231,274,-64,0,присед
1772469683232,274,452,0,присед
1772469683233,274,754,0,присед
1772469683234,274,514,0,присед
1772469683235,274,-24,0,присед
1772469683235,274,-274,0,присед
1772469683236,274,-220,0,присед
1772469683237,274,-252,0,присед
1772469683238,274,-336,0,присед
1772469683238,274,-309,0,присед
1772469683239,274,-277,0,присед
1772469683240,274,-291,0,присед
1772469683241,274,-279,0,присед
1772469683242,274,-257,0,присед
1772469683243,274,-262,0,присед
1772469683244,274,-257,0,присед
1772469683245,274,-242,0,присед
1772469683246,274,-237,0,присед
1772469683247,274,-222,0,присед
1772469683248,274,-210,0,присед
1772469683249,274,-205,0,присед
1772469683249,274,-195,0,присед
1772469683250,274,-183,0,присед
1772469683251,274,-163,0,присед
1772469683252,274,-150,0,присед
1772469683253,274,-145,0,присед
1772469683253,274,-113,0,присед
1772469683254,274,-79,0,присед
1772469683255,274,-69,0,присед
1772469683256,274,-49,0,присед
1772469683257,274,-24,0,присед
1772469683266,274,-9,0,присед
1772469683267,274,7,0,присед
1772469683268,274,9,0,присед
1772469683268,274,-22,0,присед
1772469683269,274,-64,0,присед
1772469683270,274,-98,0,присед
1772469683271,274,-116,0,присед
1772469683272,274,-131,0,присед
1772469683272,274,-148,0,присед
1772469683273,274,-150,0,присед
1772469683275,274,-136,0,присед
1772469683276,274,-121,0,присед
1772469683277,274,-111,0,присед
1772469683277,274,-111,0,присед
1772469683278,274,-111,0,присед
1772469683279,274,-108,0,присед
1772469683280,274,-106,0,присед
1772469683280,274,-106,0,присед
1772469683281,274,-106,0,присед
1772469683282,274,-101,0,присед
1772469683283,274,-103,0,присед
1772469683284,305,-103,0,присед
1772469683310,312,-103,0,присед
1772469683409,301,-103,0,присед
1772469683502,325,-103,0,присед
1772469683601,308,-103,0,присед
1772469683700,303,-103,0,присед
1772469683751,303,-113,0,присед
1772469683752,303,-96,0,присед
1772469683754,303,-59,0,присед
1772469683755,303,-49,0,присед
1772469683756,303,-54,0,присед
1772469683757,303,-39,0,присед
1772469683758,303,-32,0,присед
1772469683760,303,-44,0,присед
1772469683761,303,-44,0,присед
1772469683762,303,-34,0,присед
1772469683763,303,-44,0,присед
1772469683763,303,-51,0,присед
1772469683764,303,-44,0,присед
1772469683765,303,-81,0,присед
1772469683766,303,-183,0,присед
1772469683767,303,-178,0,присед
1772469683767,303,126,0,присед
1772469683768,303,635,0,присед
1772469683769,303,935,0,присед
1772469683770,303,672,0,присед
1772469683771,303,111,0,присед
1772469683771,303,-118,0,присед
1772469683772,303,-54,0,присед
1772469683773,303,-106,0,присед
1772469683774,303,-185,0,присед
1772469683775,303,-148,0,присед
1772469683776,303,-131,0,присед
1772469683778,303,-155,0,присед
1772469683778,303,-148,0,присед
1772469683779,303,-141,0,присед
1772469683780,303,-155,0,присед
1772469683781,303,-153,0,присед
1772469683782,303,-143,0,присед
1772469683783,303,-145,0,присед
1772469683784,303,-145,0,присед
1772469683785,303,-138,0,присед
1772469683786,303,-133,0,присед
1772469683786,303,-131,0,присед
1772469683787,303,-123,0,присед
1772469683788,303,-118,0,присед
1772469683789,303,-118,0,присед
1772469683791,303,-103,0,присед
1772469683792,303,-86,0,присед
1772469683793,303,-79,0,присед
1772469683794,303,-66,0,присед
1772469683795,303,-51,0,присед
1772469683796,303,-37,0,присед
1772469683797,303,-34,0,присед
1772469683797,303,-39,0,присед
1772469683798,303,-49,0,присед
1772469683799,303,-84,0,присед
1772469683800,303,-136,0,присед
1772469683801,303,-163,0,присед
1772469683802,303,-188,0,присед
1772469683802,303,-230,0,присед
1772469683803,303,-247,0,присед
1772469683804,303,-249,0,присед
1772469683805,303,-272,0,присед
1772469683806,303,-277,0,присед
1772469683807,303,-262,0,присед
1772469683809,303,-269,0,присед
1772469683810,303,-279,0,присед
1772469683811,303,-277,0,присед
1772469683811,303,-282,0,присед
1772469683812,303,-294,0,присед
1772469683812,303,-294,0,присед
1772469683813,303,-294,0,присед
1772469683813,303,-304,0,присед
1772469683814,303,-306,0,присед
1772469683815,303,-304,0,присед
1772469683815,303,-301,0,присед
1772469683816,303,-291,0,присед
1772469683817,303,-269,0,присед
1772469683818,347,-269,0,присед
1772469683893,324,-269,0,присед
1772469683992,340,-269,0,присед
1772469684091,307,-269,0,присед
1772469684212,288,-269,0,присед
1772469684291,334,-269,0,присед
1772469684335,334,-267,0,присед
1772469684336,334,-279,0,присед
1772469684336,334,-284,0,присед
1772469684337,334,-284,0,присед
1772469684337,334,-294,0,присед
1772469684338,334,-301,0,присед
1772469684339,334,-294,0,присед
1772469684339,334,-286,0,присед
1772469684340,334,-296,0,присед
1772469684340,334,-363,0,присед
1772469684341,334,-430,0,присед
1772469684342,334,-277,0,присед
1772469684343,334,190,0,присед
1772469684343,334,648,0,присед
1772469684344,334,611,0,присед
1772469684345,334,84,0,присед
1772469684346,334,-324,0,присед
1772469684347,334,-321,0,присед
1772469684347,334,-306,0,присед
1772469684348,334,-408,0,присед
1772469684348,334,-410,0,присед
1772469684349,334,-366,0,присед
1772469684350,334,-378,0,присед
1772469684350,334,-385,0,присед
1772469684351,334,-371,0,присед
1772469684352,334,-358,0,присед
1772469684353,334,-366,0,присед
1772469684354,334,-368,0,присед
1772469684354,334,-358,0,присед
1772469684355,334,-351,0,присед
1772469684355,334,-343,0,присед
1772469684356,334,-341,0,присед
1772469684357,334,-346,0,присед
1772469684357,334,-331,0,присед
1772469684358,334,-309,0,присед
1772469684359,334,-301,0,присед
1772469684359,334,-299,0,присед
1772469684360,334,-286,0,присед
1772469684360,334,-262,0,присед
1772469684361,334,-239,0,присед
1772469684361,334,-225,0,присед
1772469684361,334,-210,0,присед
1772469684362,334,-197,0,присед
1772469684362,334,-200,0,присед
1772469684363,334,-202,0,присед
1772469684363,334,-207,0,присед
1772469684363,334,-239,0,присед
1772469684364,334,-286,0,присед
1772469684365,334,-329,0,присед
1772469684365,334,-361,0,присед
1772469684366,334,-385,0,присед
1772469684367,334,-385,0,присед
1772469684367,334,-376,0,присед
1772469684368,334,-378,0,присед
1772469684369,334,-371,0,присед
1772469684370,334,-361,0,присед
1772469684371,334,-371,0,присед
1772469684372,334,-361,0,присед
1772469684372,334,-338,0,присед
1772469684373,334,-343,0,присед
1772469684374,334,-358,0,присед
1772469684375,334,-361,0,присед
1772469684376,334,-356,0,присед
1772469684376,334,-336,0,присед
1772469684377,334,-321,0,присед
1772469684377,334,-326,0,присед
1772469684378,334,-319,0,присед
1772469684378,334,-296,0,присед
1772469684379,334,-282,0,присед
1772469684380,334,-286,0,присед
1772469684380,334,-286,0,присед
1772469684381,334,-267,0,присед
1772469684381,334,-277,0,присед
1772469684413,350,-277,0,присед
1772469684514,337,-277,0,присед
1772469684604,276,-277,0,присед
1772469684704,332,-277,0,присед
1772469684803,286,-277,0,присед
1772469684875,286,-284,0,присед
1772469684876,286,-249,0,присед
1772469684877,286,-257,0,присед
1772469684878,286,-353,0,присед
1772469684880,286,-415,0,присед
1772469684881,286,-232,0,присед
1772469684881,286,237,0,присед
1772469684882,286,687,0,присед
1772469684883,286,665,0,присед
1772469684884,286,150,0,присед
1772469684885,286,-274,0,присед
1772469684886,286,-272,0,присед
1772469684887,286,-220,0,присед
1772469684888,286,-304,0,присед
1772469684889,286,-311,0,присед
1772469684890,286,-272,0,присед
1772469684891,286,-286,0,присед
1772469684892,286,-304,0,присед
1772469684893,286,-286,0,присед
1772469684895,286,-267,0,присед
1772469684896,286,-259,0,присед
1772469684897,286,-259,0,присед
1772469684898,286,-249,0,присед
1772469684899,286,-227,0,присед
1772469684900,286,-197,0,присед
1772469684901,286,-195,0,присед
1772469684902,286,-237,0,присед
1772469684902,286,-235,0,присед
1772469684903,286,-175,0,присед
1772469684904,286,-150,0,присед
1772469684905,286,-165,0,присед
1772469684905,286,-133,0,присед
1772469684906,286,-56,0,присед
1772469684907,286,-12,0,присед
1772469684908,286,-76,0,присед
1772469684909,286,-175,0,присед
1772469684910,286,-143,0,присед
1772469684910,286,-64,0,присед
1772469684911,286,-91,0,присед
1772469684912,286,-123,0,присед
1772469684912,286,-126,0,присед
1772469684913,286,-195,0,присед
1772469684914,286,-267,0,присед
1772469684915,286,-267,0,присед
1772469684916,286,-267,0,присед
1772469684917,286,-294,0,присед
1772469684917,286,-289,0,присед
1772469684918,286,-257,0,присед
1772469684919,286,-262,0,присед
1772469684919,286,-282,0,присед
1772469684920,286,-244,0,присед
1772469684921,286,-242,0,присед
1772469684922,286,-314,0,присед
1772469684922,286,-277,0,присед
1772469684923,286,-202,0,присед
1772469684924,286,-257,0,присед
1772469684925,286,-264,0,присед
1772469684925,286,-178,0,присед
1772469684926,286,-185,0,присед
1772469684927,286,-200,0,присед
1772469684928,286,-128,0,присед
1772469684928,286,-148,0,присед
1772469684929,286,-259,0,присед
1772469684930,286,-242,0,присед
1772469684931,286,-138,0,присед
1772469684931,286,-133,0,присед
1772469684932,286,-136,0,присед
1772469684933,286,-66,0,присед
1772469684934,286,-86,0,присед
1772469684935,286,-190,0,присед
1772469684935,286,-242,0,присед
1772469684936,286,-264,0,присед
1772469684937,286,-94,0,присед
1772469684948,293,-94,0,присед
1772469684999,309,-94,0,присед
1772469685102,295,-94,0,присед
1772469685204,350,-94,0,присед
1772469685315,265,-94,0,присед
1772469685393,265,-94,0,присед
1772469685493,263,-94,0,присед
1772469685506,263,432,0,присед
1772469685507,263,890,0,присед
1772469685508,263,784,0,присед
1772469685510,263,244,0,присед
1772469685511,263,-91,0,присед
1772469685512,263,-74,0,присед
1772469685513,263,-111,0,присед
1772469685514,263,-190,0,присед
1772469685515,263,-160,0,присед
1772469685516,263,-160,0,присед
1772469685517,263,-195,0,присед
1772469685517,263,-175,0,присед
1772469685518,263,-138,0,присед
1772469685519,263,-150,0,присед
1772469685519,263,-158,0,присед
1772469685520,263,-106,0,присед
1772469685521,263,-39,0,присед
1772469685521,263,-69,0,присед
1772469685522,263,-108,0,присед
1772469685522,263,-32,0,присед
1772469685523,263,-27,0,присед
1772469685524,263,-96,0,присед
1772469685526,263,-39,0,присед
1772469685527,263,17,0,присед
1772469685528,263,34,0,присед
1772469685529,263,37,0,присед
1772469685530,263,7,0,присед
1772469685531,263,86,0,присед
1772469685532,263,165,0,присед
1772469685533,263,141,0,присед
1772469685533,263,111,0,присед
1772469685534,263,108,0,присед
1772469685535,263,123,0,присед
1772469685536,263,81,0,присед
1772469685537,263,-2,0,присед
1772469685538,263,-108,0,присед
1772469685539,263,-220,0,присед
1772469685539,263,-192,0,присед
1772469685541,263,-81,0,присед
1772469685541,263,-111,0,присед
1772469685543,263,-225,0,присед
1772469685544,263,-185,0,присед
1772469685544,263,-123,0,присед
1772469685545,263,-220,0,присед
1772469685545,263,-210,0,присед
1772469685547,263,-86,0,присед
1772469685547,263,-150,0,присед
1772469685548,263,-249,0,присед
1772469685549,263,-153,0,присед
1772469685550,263,-79,0,присед
1772469685551,263,-155,0,присед
1772469685551,263,-165,0,присед
1772469685552,263,-118,0,присед
1772469685553,263,-113,0,присед
1772469685553,263,-74,0,присед
1772469685554,263,-51,0,присед
1772469685555,263,-94,0,присед
1772469685556,263,-86,0,присед
1772469685557,263,-42,0,присед
1772469685557,263,-66,0,присед
1772469685558,263,-118,0,присед
1772469685559,263,-160,0,присед
1772469685560,263,-259,0,присед
1772469685561,263,-217,0,присед
1772469685562,263,200,0,присед
1772469685563,263,799,0,присед
1772469685563,263,1083,0,присед
1772469685564,263,663,0,присед
1772469685565,263,-19,0,присед
1772469685566,263,-153,0,присед
1772469685567,263,-9,0,присед
1772469685567,263,-121,0,присед
1772469685568,263,-200,0,присед
1772469685594,267,-200,0,присед
1772469685708,280,-200,0,присед
1772469685807,291,-200,0,присед
1772469685909,324,-200,0,присед
1772469685999,324,-116,0,присед
1772469686008,324,-121,0,присед
1772469686009,324,-158,0,присед
1772469686010,324,-113,0,присед
1772469686011,324,-81,0,присед
1772469686012,324,-91,0,присед
1772469686013,324,-79,0,присед
1772469686014,324,-64,0,присед
1772469686015,324,-61,0,присед
1772469686016,324,-42,0,присед
1772469686017,324,-22,0,присед
1772469686018,324,-27,0,присед
1772469686019,324,-9,0,присед
1772469686020,324,34,0,присед
1772469686021,324,44,0,присед
1772469686021,324,32,0,присед
1772469686022,324,59,0,присед
1772469686023,324,103,0,присед
1772469686024,324,121,0,присед
1772469686025,324,128,0,присед
1772469686026,324,145,0,присед
1772469686027,324,150,0,присед
1772469686027,324,136,0,присед
1772469686028,324,116,0,присед
1772469686029,324,84,0,присед
1772469686030,324,39,0,присед
1772469686031,324,-17,0,присед
1772469686032,324,-91,0,присед
1772469686033,324,-153,0,присед
1772469686034,324,-185,0,присед
1772469686034,324,-210,0,присед
1772469686035,324,-227,0,присед
1772469686036,324,-225,0,присед
1772469686037,324,-227,0,присед
1772469686038,324,-239,0,присед
1772469686039,324,-247,0,присед
1772469686040,324,-235,0,присед
1772469686041,324,-232,0,присед
1772469686042,324,-242,0,присед
1772469686043,324,-239,0,присед
1772469686043,324,-242,0,присед
1772469686045,324,-247,0,присед
1772469686046,324,-222,0,присед
1772469686047,324,-188,0,присед
1772469686048,324,-178,0,присед
1772469686115,324,-178,0,присед
1772469686116,324,-178,0,присед
1772469686118,324,-168,0,присед
1772469686120,324,-153,0,присед
1772469686121,324,-153,0,присед
1772469686122,324,-150,0,присед
1772469686122,324,-143,0,присед
1772469686123,324,-141,0,присед
1772469686123,324,-153,0,присед
1772469686124,324,-227,0,присед
1772469686125,324,-284,0,присед
1772469686126,324,-64,0,присед
1772469686126,324,437,0,присед
1772469686127,324,823,0,присед
1772469686127,324,680,0,присед
1772469686128,324,148,0,присед
1772469686129,324,-158,0,присед
1772469686129,324,-103,0,присед
1772469686130,324,-96,0,присед
1772469686130,324,-175,0,присед
1772469686131,324,-168,0,присед
1772469686131,324,-163,0,присед
1772469686132,324,-215,0,присед
1772469686133,324,-244,0,присед
1772469686133,324,-235,0,присед
1772469686134,324,-237,0,присед
1772469686135,324,-244,0,присед
1772469686135,324,-237,0,присед
1772469686136,263,-237,0,присед
1772469686138,264,-237,0,присед
1772469686196,280,-237,0,присед
1772469686298,282,-237,0,присед
1772469686417,284,-237,0,присед
1772469686494,344,-237,0,присед
1772469686540,344,-235,0,присед
1772469686541,344,-235,0,присед
1772469686542,344,-185,0,присед
1772469686543,344,17,0,присед
1772469686544,344,195,0,присед
1772469686545,344,170,0,присед
1772469686546,344,94,0,присед
1772469686547,344,7,0,присед
1772469686547,344,4,0,присед
1772469686548,344,-9,0,присед
1772469686549,344,-227,0,присед
1772469686550,344,-264,0,присед
1772469686551,344,-106,0,присед
1772469686551,344,-128,0,присед
1772469686552,344,-173,0,присед
1772469686553,344,-101,0,присед
1772469686554,344,-89,0,присед
1772469686555,344,-133,0,присед
1772469686555,344,-148,0,присед
1772469686556,344,-168,0,присед
1772469686557,344,-210,0,присед
1772469686558,344,-239,0,присед
1772469686558,344,-239,0,присед
1772469686559,344,-215,0,присед
1772469686560,344,-131,0,присед
1772469686561,344,121,0,присед
1772469686562,344,291,0,присед
1772469686562,344,94,0,присед
1772469686563,344,207,0,присед
1772469686564,344,670,0,присед
1772469686565,344,650,0,присед
1772469686566,344,526,0,присед
1772469686566,344,472,0,присед
1772469686567,344,183,0,присед
1772469686568,344,108,0,присед
1772469686569,344,274,0,присед
1772469686569,344,380,0,присед
1772469686570,344,190,0,присед
1772469686571,344,-113,0,присед
1772469686572,344,-121,0,присед
1772469686572,344,-138,0,присед
1772469686574,344,-205,0,присед
1772469686574,344,37,0,присед
1772469686575,344,324,0,присед
1772469686576,344,484,0,присед
1772469686577,344,593,0,присед
1772469686577,344,494,0,присед
1772469686578,344,314,0,присед
1772469686579,344,373,0,присед
1772469686580,344,712,0,присед
1772469686580,344,1130,0,присед
1772469686581,344,1298,0,присед
1772469686582,344,880,0,присед
1772469686583,344,217,0,присед
1772469686584,344,138,0,присед
1772469686584,344,316,0,присед
1772469686585,344,89,0,присед
1772469686586,344,-64,0,присед
1772469686587,344,101,0,присед
1772469686587,344,96,0,присед
1772469686588,344,-34,0,присед
1772469686589,344,2,0,присед
1772469686590,344,-7,0,присед
1772469686591,344,-155,0,присед
1772469686592,344,-165,0,присед
1772469686593,344,34,0,присед
1772469686593,344,180,0,присед
1772469686594,344,56,0,присед
1772469686595,344,-27,0,присед
1772469686595,344,-12,0,присед
1772469686596,344,-123,0,присед
1772469686597,344,-64,0,присед
1772469686598,344,39,0,присед
1772469686599,405,39,0,присед
1772469686692,393,39,0,присед
1772469686809,387,39,0,присед
1772469686908,330,39,0,присед
1772469687006,279,39,0,присед
1772469687107,356,39,0,присед
1772469687200,351,39,0,присед
1772469687214,351,-163,0,присед
1772469687216,351,-440,0,присед
1772469687217,351,-633,0,присед
1772469687218,351,-680,0,присед
1772469687219,351,-556,0,присед
1772469687220,351,-400,0,присед
1772469687220,351,-388,0,присед
1772469687221,351,-524,0,присед
1772469687222,351,-616,0,присед
1772469687223,351,-576,0,присед
1772469687224,351,-571,0,присед
1772469687226,351,-645,0,присед
1772469687227,351,-660,0,присед
1772469687228,351,-606,0,присед
1772469687229,351,-561,0,присед
1772469687229,351,-576,0,присед
1772469687230,351,-638,0,присед
1772469687231,351,-576,0,присед
1772469687232,351,-408,0,присед
1772469687233,351,-455,0,присед
1772469687234,351,-564,0,присед
1772469687235,351,-420,0,присед
1772469687235,351,-351,0,присед
1772469687236,351,-455,0,присед
1772469687237,351,-418,0,присед
1772469687238,351,-338,0,присед
1772469687239,351,-408,0,присед
1772469687240,351,-465,0,присед
1772469687240,351,-403,0,присед
1772469687241,351,-383,0,присед
1772469687242,351,-393,0,присед
1772469687242,351,-286,0,присед
1772469687243,351,-118,0,присед
1772469687243,351,-54,0,присед
1772469687243,351,-138,0,присед
1772469687244,351,-205,0,присед
1772469687244,351,-153,0,присед
1772469687245,351,-126,0,присед
1772469687245,351,-212,0,присед
1772469687246,351,-222,0,присед
1772469687246,351,-185,0,присед
1772469687247,351,-356,0,присед
1772469687247,351,-284,0,присед
1772469687248,351,450,0,присед
1772469687250,351,1123,0,присед
1772469687251,351,1026,0,присед
1772469687251,351,460,0,присед
1772469687252,351,-2,0,присед
1772469687252,351,-145,0,присед
1772469687253,351,-133,0,присед
1772469687253,351,-155,0,присед
1772469687254,351,-165,0,присед
1772469687255,351,-91,0,присед
1772469687255,351,-2,0,присед
1772469687255,351,17,0,присед
1772469687256,351,-56,0,присед
1772469687257,351,-155,0,присед
1772469687258,351,-136,0,присед
1772469687258,351,2,0,присед
1772469687259,351,51,0,присед
1772469687259,351,-56,0,присед
1772469687260,351,-131,0,присед
1772469687260,351,-66,0,присед
1772469687261,351,61,0,присед
1772469687261,351,76,0,присед
1772469687262,351,-54,0,присед
1772469687262,351,-54,0,присед
1772469687263,351,29,0,присед
1772469687263,351,-14,0,присед
1772469687264,351,-69,0,присед
1772469687264,351,7,0,присед
1772469687265,351,76,0,присед
1772469687265,351,81,0,присед
1772469687298,360,81,0,присед
1772469687400,307,81,0,присед
1772469687520,329,81,0,присед
1772469687596,295,81,0,присед
1772469687695,291,81,0,присед
1772469687710,291,136,0,присед
1772469687712,291,118,0,присед
1772469687712,291,47,0,присед
1772469687713,291,66,0,присед
1772469687714,291,14,0,присед
1772469687715,291,-108,0,присед
1772469687715,291,-155,0,присед
1772469687716,291,-153,0,присед
1772469687717,291,-148,0,присед
1772469687718,291,-207,0,присед
1772469687719,291,-239,0,присед
1772469687719,291,-173,0,присед
1772469687720,291,-136,0,присед
1772469687721,291,-202,0,присед
1772469687722,291,-257,0,присед
1772469687723,291,-232,0,присед
1772469687724,291,-247,0,присед
1772469687725,291,-294,0,присед
1772469687726,291,-237,0,присед
1772469687727,291,-197,0,присед
1772469687728,291,-207,0,присед
1772469687729,291,-150,0,присед
1772469687729,291,-113,0,присед
1772469687730,291,-150,0,присед
1772469687731,291,-185,0,присед
1772469687731,291,-232,0,присед
1772469687732,291,-274,0,присед
1772469687733,291,-225,0,присед
1772469687734,291,-242,0,присед
1772469687735,291,-306,0,присед
1772469687736,291,-237,0,присед
1772469687737,291,-331,0,присед
1772469687738,291,-512,0,присед
1772469687739,291,-200,0,присед
1772469687740,291,427,0,присед
1772469687741,291,712,0,присед
1772469687742,291,442,0,присед
1772469687742,291,-91,0,присед
1772469687743,291,-376,0,присед
1772469687744,291,-314,0,присед
1772469687744,291,-309,0,присед
1772469687745,291,-415,0,присед
1772469687746,291,-423,0,присед
1772469687747,291,-398,0,присед
1772469687747,291,-418,0,присед
1772469687748,291,-432,0,присед
1772469687749,291,-420,0,присед
1772469687750,291,-415,0,присед
1772469687751,291,-420,0,присед
1772469687751,291,-435,0,присед
1772469687753,291,-445,0,присед
1772469687753,291,-447,0,присед
1772469687754,291,-437,0,присед
1772469687755,291,-435,0,присед
1772469687756,291,-447,0,присед
1772469687756,291,-455,0,присед
1772469687757,291,-450,0,присед
1772469687758,291,-452,0,присед
1772469687759,291,-445,0,присед
1772469687760,291,-430,0,присед
1772469687761,291,-435,0,присед
1772469687761,291,-435,0,присед
1772469687762,291,-395,0,присед
1772469687763,291,-373,0,присед
1772469687764,291,-376,0,присед
1772469687765,291,-368,0,присед
1772469687766,291,-378,0,присед
1772469687766,291,-445,0,присед
1772469687767,291,-512,0,присед
1772469687768,291,-559,0,присед
1772469687769,291,-623,0,присед
1772469687770,291,-690,0,присед
1772469687771,291,-734,0,присед
1772469687794,326,-734,0,присед
1772469687913,304,-734,0,присед
1772469688011,289,-734,0,присед
1772469688110,368,-734,0,присед
1772469688205,368,-759,0,присед
1772469688206,368,-784,0,присед
1772469688207,368,-823,0,присед
1772469688208,368,-846,0,присед
1772469688210,368,-853,0,присед
1772469688211,368,-883,0,присед
1772469688212,368,-907,0,присед
1772469688213,368,-915,0,присед
1772469688214,368,-932,0,присед
1772469688215,368,-940,0,присед
1772469688215,368,-922,0,присед
1772469688216,368,-915,0,присед
1772469688217,368,-910,0,присед
1772469688218,368,-890,0,присед
1772469688219,368,-865,0,присед
1772469688220,368,-855,0,присед
1772469688220,368,-885,0,присед
1772469688221,368,-922,0,присед
1772469688222,368,-915,0,присед
1772469688223,368,-893,0,присед
1772469688224,368,-902,0,присед
1772469688225,368,-920,0,присед
1772469688226,368,-932,0,присед
1772469688226,368,-997,0,присед
1772469688227,368,-1098,0,присед
1772469688228,368,-1011,0,присед
1772469688229,368,-588,0,присед
1772469688230,368,-71,0,присед
1772469688230,368,39,0,присед
1772469688231,368,-440,0,присед
1772469688232,368,-984,0,присед
1772469688233,368,-1083,0,присед
1772469688233,368,-1046,0,присед
1772469688234,368,-1155,0,присед
1772469688235,368,-1199,0,присед
1772469688236,368,-1165,0,присед
1772469688237,368,-1180,0,присед
1772469688237,368,-1185,0,присед
1772469688238,368,-1165,0,присед
1772469688239,368,-1172,0,присед
1772469688240,368,-1180,0,присед
1772469688241,368,-1155,0,присед
1772469688242,368,-1133,0,присед
1772469688243,368,-1125,0,присед
1772469688243,368,-1110,0,присед
1772469688244,368,-1088,0,присед
1772469688245,368,-1068,0,присед
1772469688246,368,-1044,0,присед
1772469688246,368,-1011,0,присед
1772469688247,368,-984,0,присед
1772469688248,368,-952,0,присед
1772469688249,368,-905,0,присед
1772469688250,368,-863,0,присед
1772469688251,368,-826,0,присед
1772469688251,368,-786,0,присед
1772469688252,368,-749,0,присед
1772469688253,368,-722,0,присед
1772469688254,368,-710,0,присед
1772469688255,368,-705,0,присед
1772469688257,368,-702,0,присед
1772469688258,368,-719,0,присед
1772469688258,368,-754,0,присед
1772469688259,368,-786,0,присед
1772469688260,368,-816,0,присед
1772469688261,368,-841,0,присед
1772469688261,368,-843,0,присед
1772469688262,368,-833,0,присед
1772469688263,368,-821,0,присед
1772469688264,368,-811,0,присед
1772469688264,368,-801,0,присед
1772469688265,368,-801,0,присед
1772469688266,368,-794,0,присед
1772469688267,368,-779,0,присед
1772469688268,323,-779,0,присед
1772469688304,335,-779,0,присед
1772469688403,302,-779,0,присед
1772469688503,297,-779,0,присед
1772469688623,299,-779,0,присед
1772469688702,280,-779,0,присед
1772469688803,273,-779,0,присед
1772469688880,273,-764,0,присед
1772469688881,273,-749,0,присед
1772469688882,273,-732,0,присед
1772469688882,273,-717,0,присед
1772469688883,273,-690,0,присед
1772469688885,273,-658,0,присед
1772469688886,273,-638,0,присед
1772469688887,273,-640,0,присед
1772469688888,273,-643,0,присед
1772469688888,273,-623,0,присед
1772469688889,273,-588,0,присед
1772469688890,273,-583,0,присед
1772469688891,273,-588,0,присед
1772469688892,273,-561,0,присед
1772469688893,273,-613,0,присед
1772469688894,273,-710,0,присед
1772469688894,273,-529,0,присед
1772469688895,273,-2,0,присед
1772469688896,273,497,0,присед
1772469688897,273,509,0,присед
1772469688897,273,-4,0,присед
1772469688898,273,-452,0,присед
1772469688899,273,-457,0,присед
1772469688900,273,-410,0,присед
1772469688900,273,-502,0,присед
1772469688901,273,-499,0,присед
1772469688902,273,-440,0,присед
1772469688903,273,-440,0,присед
1772469688904,273,-427,0,присед
1772469688905,273,-385,0,присед
1772469688906,273,-378,0,присед
1772469688907,273,-378,0,присед
1772469688907,273,-353,0,присед
1772469688908,273,-324,0,присед
1772469688909,273,-291,0,присед
1772469688910,273,-264,0,присед
1772469688911,273,-259,0,присед
1772469688912,273,-242,0,присед
1772469688912,273,-202,0,присед
1772469688913,273,-165,0,присед
1772469688914,273,-143,0,присед
1772469688915,273,-126,0,присед
1772469688915,273,-111,0,присед
1772469688916,273,-86,0,присед
1772469688917,273,-32,0,присед
1772469688918,273,2,0,присед
1772469688918,273,-9,0,присед
1772469688919,273,-17,0,присед
1772469688920,273,0,0,присед
1772469688920,273,32,0,присед
1772469688921,273,14,0,присед
1772469688922,273,-64,0,присед
1772469688923,273,-98,0,присед
1772469688924,273,-94,0,присед
1772469688925,273,-128,0,присед
1772469688926,273,-160,0,присед
1772469688926,273,-160,0,присед
1772469688927,273,-158,0,присед
1772469688928,273,-155,0,присед
1772469688929,273,-141,0,присед
1772469688929,273,-133,0,присед
1772469688930,273,-133,0,присед
1772469688931,273,-113,0,присед
1772469688932,273,-98,0,присед
1772469688932,273,-136,0,присед
1772469688933,273,-155,0,присед
1772469688934,273,-96,0,присед
1772469688935,273,-96,0,присед
1772469688936,273,-131,0,присед
1772469688936,273,-42,0,присед
1772469688937,273,-14,0,присед
1772469688938,273,-91,0,присед
1772469688939,273,-44,0,присед
1772469688940,273,-44,0,присед
1772469689014,273,-44,0,присед
1772469689114,275,-44,0,присед
1772469689213,300,-44,0,присед
1772469689311,287,-44,0,присед
1772469689405,329,-44,0,присед
1772469689420,329,9,0,присед
1772469689421,329,-29,0,присед
1772469689422,329,32,0,присед
1772469689422,329,113,0,присед
1772469689423,329,22,0,присед
1772469689424,329,-106,0,присед
1772469689425,329,-128,0,присед
1772469689426,329,59,0,присед
1772469689426,329,613,0,присед
1772469689427,329,1172,0,присед
1772469689428,329,1095,0,присед
1772469689428,329,519,0,присед
1772469689429,329,136,0,присед
1772469689430,329,54,0,присед
1772469689431,329,-12,0,присед
1772469689432,329,-4,0,присед
1772469689432,329,27,0,присед
1772469689433,329,-81,0,присед
1772469689434,329,-128,0,присед
1772469689435,329,-37,0,присед
1772469689436,329,9,0,присед
1772469689437,329,-17,0,присед
1772469689437,329,-29,0,присед
1772469689438,329,-7,0,присед
1772469689439,329,2,0,присед
1772469689440,329,4,0,присед
1772469689441,329,39,0,присед
1772469689442,329,61,0,присед
1772469689442,329,84,0,присед
1772469689443,329,121,0,присед
1772469689444,329,91,0,присед
1772469689444,329,71,0,присед
1772469689445,329,148,0,присед
1772469689446,329,215,0,присед
1772469689447,329,202,0,присед
1772469689447,329,197,0,присед
1772469689448,329,257,0,присед
1772469689449,329,274,0,присед
1772469689450,329,267,0,присед
1772469689450,329,319,0,присед
1772469689451,329,284,0,присед
1772469689452,329,188,0,присед
1772469689453,329,192,0,присед
1772469689453,329,160,0,присед
1772469689454,329,39,0,присед
1772469689455,329,22,0,присед
1772469689456,329,32,0,присед
1772469689458,329,-56,0,присед
1772469689459,329,-91,0,присед
1772469689460,329,-39,0,присед
1772469689461,329,-14,0,присед
1772469689462,329,-49,0,присед
1772469689462,329,-91,0,присед
1772469689463,329,-49,0,присед
1772469689464,329,-12,0,присед
1772469689464,329,-79,0,присед
1772469689466,329,-84,0,присед
1772469689466,329,14,0,присед
1772469689467,329,14,0,присед
1772469689468,329,-96,0,присед
1772469689469,329,-91,0,присед
1772469689470,329,-14,0,присед
1772469689471,329,-9,0,присед
1772469689471,329,-7,0,присед
1772469689472,329,7,0,присед
1772469689473,329,27,0,присед
1772469689474,329,0,0,присед
1772469689475,329,-61,0,присед
1772469689475,329,-101,0,присед
1772469689476,329,-158,0,присед
1772469689477,329,-7,0,присед
1772469689478,329,593,0,присед
1772469689478,329,1286,0,присед
1772469689505,337,1286,0,присед
1772469689605,338,1286,0,присед
1772469689725,307,1286,0,присед
1772469689803,302,1286,0,присед
1772469689903,317,1286,0,присед
1772469689914,317,1365,0,присед
1772469689916,317,700,0,присед
1772469689917,317,84,0,присед
1772469689918,317,37,0,присед
1772469689919,317,91,0,присед
1772469689920,317,-14,0,присед
1772469689921,317,-39,0,присед
1772469689921,317,-2,0,присед
1772469689922,317,0,0,присед
1772469689923,317,4,0,присед
1772469689925,317,14,0,присед
1772469689926,317,17,0,присед
1772469689927,317,29,0,присед
1772469689927,317,54,0,присед
1772469689928,317,81,0,присед
1772469689929,317,84,0,присед
1772469689930,317,86,0,присед
1772469689931,317,113,0,присед
1772469689931,317,128,0,присед
1772469689932,317,136,0,присед
1772469689933,317,168,0,присед
1772469689934,317,197,0,присед
1772469689934,317,217,0,присед
1772469689935,317,235,0,присед
1772469689936,317,259,0,присед
1772469689937,317,304,0,присед
1772469689938,317,331,0,присед
1772469689938,317,338,0,присед
1772469689940,317,358,0,присед
1772469689941,317,383,0,присед
1772469689942,317,366,0,присед
1772469689943,317,311,0,присед
1772469689944,317,244,0,присед
1772469689945,317,178,0,присед
1772469689946,317,131,0,присед
1772469689947,317,103,0,присед
1772469689947,317,69,0,присед
1772469689948,317,42,0,присед
1772469689949,317,49,0,присед
1772469689949,317,59,0,присед
1772469689950,317,37,0,присед
1772469689951,317,12,0,присед
1772469689952,317,12,0,присед
1772469689952,317,12,0,присед
1772469689953,317,0,0,присед
1772469689954,317,-17,0,присед
1772469689955,317,-29,0,присед
1772469689956,317,-24,0,присед
1772469689957,317,-14,0,присед
1772469689958,317,-7,0,присед
1772469689958,317,2,0,присед
1772469689959,317,27,0,присед
1772469689960,317,27,0,присед
1772469689961,317,-24,0,присед
1772469689962,317,-64,0,присед
1772469689962,317,-56,0,присед
1772469689963,317,-37,0,присед
1772469689964,317,-29,0,присед
1772469689965,317,-42,0,присед
1772469689965,317,-118,0,присед
1772469689966,317,-200,0,присед
1772469689967,317,-34,0,присед
1772469689968,317,467,0,присед
1772469689968,317,1004,0,присед
1772469689969,317,1061,0,присед
1772469689970,317,526,0,присед
1772469689971,317,24,0,присед
1772469689971,317,-9,0,присед
1772469689972,317,22,0,присед
1772469689973,317,-98,0,присед
1772469689974,317,-123,0,присед
1772469689975,317,-71,0,присед
1772469689976,317,-79,0,присед
1772469690004,275,-79,0,присед
1772469690094,285,-79,0,присед
1772469690193,301,-79,0,присед
1772469690293,270,-79,0,присед
1772469690395,272,-79,0,присед
1772469690500,272,-89,0,присед
1772469690501,272,-64,0,присед
1772469690502,272,-54,0,присед
1772469690503,272,-56,0,присед
1772469690504,272,-44,0,присед
1772469690505,272,-24,0,присед
1772469690516,272,-22,0,присед
1772469690516,272,-17,0,присед
1772469690517,272,-4,0,присед
1772469690518,272,7,0,присед
1772469690519,272,19,0,присед
1772469690520,272,34,0,присед
1772469690521,272,47,0,присед
1772469690522,272,61,0,присед
1772469690523,272,81,0,присед
1772469690524,272,103,0,присед
1772469690525,272,121,0,присед
1772469690526,272,133,0,присед
1772469690527,272,141,0,присед
1772469690528,272,148,0,присед
1772469690528,272,141,0,присед
1772469690529,272,126,0,присед
1772469690530,272,98,0,присед
1772469690531,272,49,0,присед
1772469690532,272,-9,0,присед
1772469690532,272,-61,0,присед
1772469690533,272,-108,0,присед
1772469690534,272,-145,0,присед
1772469690535,272,-160,0,присед
1772469690536,272,-165,0,присед
1772469690537,272,-168,0,присед
1772469690538,272,-163,0,присед
1772469690539,272,-155,0,присед
1772469690540,272,-153,0,присед
1772469690541,272,-143,0,присед
1772469690541,272,-133,0,присед
1772469690542,272,-133,0,присед
1772469690543,272,-136,0,присед
1772469690544,272,-128,0,присед
1772469690545,272,-123,0,присед
1772469690546,272,-128,0,присед
1772469690546,272,-121,0,присед
1772469690547,272,-103,0,присед
1772469690548,272,-89,0,присед
1772469690549,272,-71,0,присед
1772469690550,272,-54,0,присед
1772469690551,272,-51,0,присед
1772469690552,272,-64,0,присед
1772469690552,272,-59,0,присед
1772469690553,272,-32,0,присед
1772469690554,272,-29,0,присед
1772469690555,272,-37,0,присед
1772469690555,272,-29,0,присед
1772469690556,272,-79,0,присед
1772469690557,272,-185,0,присед
1772469690558,272,-84,0,присед
1772469690559,272,393,0,присед
1772469690560,272,967,0,присед
1772469690560,272,1088,0,присед
1772469690561,272,596,0,присед
1772469690562,272,81,0,присед
1772469690562,272,19,0,присед
1772469690563,272,56,0,присед
1772469690564,272,-44,0,присед
1772469690565,272,-71,0,присед
1772469690566,272,-29,0,присед
1772469690566,272,-29,0,присед
1772469690567,272,-27,0,присед
1772469690568,272,-4,0,присед
1772469690569,272,17,0,присед
1772469690570,272,34,0,присед
1772469690571,272,44,0,присед
1772469690571,272,59,0,присед
1772469690573,275,59,0,присед
1772469690606,266,59,0,присед
1772469690706,264,59,0,присед
1772469690828,276,59,0,присед
1772469690907,281,59,0,присед
1772469691005,262,59,0,присед
1772469691040,262,76,0,присед
1772469691041,262,81,0,присед
1772469691042,262,89,0,присед
1772469691043,262,108,0,присед
1772469691044,262,126,0,присед
1772469691045,262,141,0,присед
1772469691046,262,170,0,присед
1772469691047,262,192,0,присед
1772469691048,262,217,0,присед
1772469691049,262,257,0,присед
1772469691050,262,272,0,присед
1772469691050,262,264,0,присед
1772469691051,262,291,0,присед
1772469691052,262,326,0,присед
1772469691052,262,343,0,присед
1772469691053,262,358,0,присед
1772469691054,262,356,0,присед
1772469691055,262,333,0,присед
1772469691056,262,309,0,присед
1772469691057,262,284,0,присед
1772469691058,262,254,0,присед
1772469691059,262,225,0,присед
1772469691060,262,215,0,присед
1772469691061,262,230,0,присед
1772469691062,262,237,0,присед
1772469691063,262,235,0,присед
1772469691064,262,239,0,присед
1772469691065,262,242,0,присед
1772469691065,262,232,0,присед
1772469691066,262,222,0,присед
1772469691067,262,232,0,присед
1772469691068,262,249,0,присед
1772469691069,262,259,0,присед
1772469691069,262,264,0,присед
1772469691070,262,264,0,присед
1772469691071,262,264,0,присед
1772469691072,262,239,0,присед
1772469691073,262,197,0,присед
1772469691074,262,200,0,присед
1772469691075,262,232,0,присед
1772469691076,262,232,0,присед
1772469691077,262,222,0,присед
1772469691077,262,225,0,присед
1772469691078,262,230,0,присед
1772469691079,262,220,0,присед
1772469691080,262,195,0,присед
1772469691081,262,175,0,присед
1772469691081,262,145,0,присед
1772469691082,262,113,0,присед
1772469691083,262,47,0,присед
1772469691084,262,-9,0,присед
1772469691084,262,220,0,присед
1772469691085,262,779,0,присед
1772469691086,262,1214,0,присед
1772469691086,262,1041,0,присед
1772469691087,262,430,0,присед
1772469691088,262,56,0,присед
1772469691089,262,81,0,присед
1772469691090,262,42,0,присед
1772469691090,262,-123,0,присед
1772469691091,262,-133,0,присед
1772469691092,262,-74,0,присед
1772469691093,262,-106,0,присед
1772469691093,262,-118,0,присед
1772469691094,262,-91,0,присед
1772469691095,262,-113,0,присед
1772469691096,262,-143,0,присед
1772469691097,262,-150,0,присед
1772469691097,262,-158,0,присед
1772469691098,262,-141,0,присед
1772469691099,262,-141,0,присед
1772469691099,262,-163,0,присед
1772469691100,262,-150,0,присед
1772469691111,264,-150,0,присед
1772469691196,280,-150,0,присед
1772469691295,313,-150,0,присед
1772469691394,280,-150,0,присед
1772469691496,280,-150,0,присед
1772469691580,280,-123,0,присед
1772469691581,280,-143,0,присед
1772469691582,280,-180,0,присед
1772469691582,280,-197,0,присед
1772469691583,280,-220,0,присед
1772469691584,280,-192,0,присед
1772469691584,280,-126,0,присед
1772469691585,280,-133,0,присед
1772469691586,280,-136,0,присед
1772469691587,280,-84,0,присед
1772469691587,280,-101,0,присед
1772469691588,280,-153,0,присед
1772469691589,280,-160,0,присед
1772469691590,280,-195,0,присед
1772469691591,280,-239,0,присед
1772469691592,280,-259,0,присед
1772469691593,280,-264,0,присед
1772469691594,280,-225,0,присед
1772469691594,280,-217,0,присед
1772469691595,280,-291,0,присед
1772469691596,280,-341,0,присед
1772469691597,280,-333,0,присед
1772469691597,280,-249,0,присед
1772469691598,280,-116,0,присед
1772469691599,280,-111,0,присед
1772469691600,280,-183,0,присед
1772469691601,280,-160,0,присед
1772469691602,280,-136,0,присед
1772469691602,280,-200,0,присед
1772469691603,280,-291,0,присед
1772469691604,280,-291,0,присед
1772469691604,280,-252,0,присед
1772469691605,280,-269,0,присед
1772469691606,280,-217,0,присед
1772469691607,280,-143,0,присед
1772469691608,280,-239,0,присед
1772469691609,280,-346,0,присед
1772469691610,280,-158,0,присед
1772469691611,280,118,0,присед
1772469691611,280,116,0,присед
1772469691612,280,71,0,присед
1772469691613,280,103,0,присед
1772469691614,280,-17,0,присед
1772469691615,280,7,0,присед
1772469691615,280,484,0,присед
1772469691616,280,1041,0,присед
1772469691617,280,1189,0,присед
1772469691618,280,759,0,присед
1772469691619,280,178,0,присед
1772469691619,280,66,0,присед
1772469691620,280,168,0,присед
1772469691620,280,74,0,присед
1772469691621,280,9,0,присед
1772469691621,280,51,0,присед
1772469691622,280,-2,0,присед
1772469691622,280,-51,0,присед
1772469691623,280,12,0,присед
1772469691623,280,47,0,присед
1772469691624,280,29,0,присед
1772469691624,280,34,0,присед
1772469691625,280,59,0,присед
1772469691625,280,66,0,присед
1772469691625,280,54,0,присед
1772469691626,280,61,0,присед
1772469691626,280,39,0,присед
1772469691627,280,-27,0,присед
1772469691627,280,-56,0,присед
1772469691627,280,-37,0,присед
1772469691628,280,9,0,присед
1772469691628,280,66,0,присед
1772469691629,280,101,0,присед
1772469691629,280,-44,0,присед
1772469691630,280,-371,0,присед
1772469691631,253,-371,0,присед
1772469691709,250,-371,0,присед
1772469691810,256,-371,0,присед
1772469691930,262,-371,0,присед
1772469692008,262,-371,0,присед
1772469692106,273,-371,0,присед
1772469692210,273,-390,0,присед
1772469692211,273,37,0,присед
1772469692212,273,286,0,присед
1772469692213,273,64,0,присед
1772469692213,273,-254,0,присед
1772469692214,273,-348,0,присед
1772469692215,273,-237,0,присед
1772469692216,273,-44,0,присед
1772469692217,273,91,0,присед
1772469692217,273,133,0,присед
1772469692218,273,178,0,присед
1772469692219,273,212,0,присед
1772469692220,273,227,0,присед
1772469692221,273,259,0,присед
1772469692222,273,259,0,присед
1772469692223,273,242,0,присед
1772469692223,273,247,0,присед
1772469692225,273,239,0,присед
1772469692225,273,202,0,присед
1772469692226,273,170,0,присед
1772469692227,273,175,0,присед
1772469692228,273,185,0,присед
1772469692228,273,170,0,присед
1772469692229,273,180,0,присед
1772469692230,273,197,0,присед
1772469692231,273,173,0,присед
1772469692231,273,150,0,присед
1772469692232,273,155,0,присед
1772469692233,273,153,0,присед
1772469692234,273,150,0,присед
1772469692235,273,163,0,присед
1772469692236,273,170,0,присед
1772469692236,273,141,0,присед
1772469692237,273,47,0,присед
1772469692239,273,-51,0,присед
1772469692241,273,49,0,присед
1772469692242,273,467,0,присед
1772469692242,273,977,0,присед
1772469692243,273,1130,0,присед
1772469692244,273,712,0,присед
1772469692245,273,185,0,присед
1772469692245,273,94,0,присед
1772469692246,273,158,0,присед
1772469692247,273,69,0,присед
1772469692247,273,34,0,присед
1772469692248,273,79,0,присед
1772469692249,273,66,0,присед
1772469692250,273,49,0,присед
1772469692250,273,69,0,присед
1772469692251,273,86,0,присед
1772469692252,273,94,0,присед
1772469692253,273,98,0,присед
1772469692254,273,108,0,присед
1772469692255,273,121,0,присед
1772469692256,273,133,0,присед
1772469692257,273,141,0,присед
1772469692257,273,143,0,присед
1772469692258,273,153,0,присед
1772469692259,273,168,0,присед
1772469692260,273,190,0,присед
1772469692260,273,212,0,присед
1772469692261,273,200,0,присед
1772469692262,273,192,0,присед
1772469692263,273,239,0,присед
1772469692264,273,282,0,присед
1772469692264,273,279,0,присед
1772469692265,273,282,0,присед
1772469692266,273,289,0,присед
1772469692267,273,282,0,присед
1772469692267,273,262,0,присед
1772469692268,273,239,0,присед
1772469692269,273,205,0,присед
1772469692270,273,163,0,присед
1772469692271,279,163,0,присед
1772469692299,264,163,0,присед
1772469692399,280,163,0,присед
1772469692498,281,163,0,присед
1772469692596,278,163,0,присед
1772469692713,279,163,0,присед
1772469692750,279,123,0,присед
1772469692751,279,89,0,присед
1772469692752,279,69,0,присед
1772469692753,279,61,0,присед
1772469692753,279,54,0,присед
1772469692754,279,42,0,присед
1772469692755,279,22,0,присед
1772469692755,279,9,0,присед
1772469692756,279,7,0,присед
1772469692758,279,-24,0,присед
1772469692759,279,-64,0,присед
1772469692760,279,-34,0,присед
1772469692761,279,-19,0,присед
1772469692761,279,-96,0,присед
1772469692762,279,-227,0,присед
1772469692763,279,-210,0,присед
1772469692763,279,-7,0,присед
1772469692764,279,22,0,присед
1772469692765,279,-64,0,присед
1772469692766,279,-17,0,присед
1772469692767,279,7,0,присед
1772469692768,279,-34,0,присед
1772469692769,279,-59,0,присед
1772469692769,279,-121,0,присед
1772469692770,279,-336,0,присед
1772469692771,279,-514,0,присед
1772469692772,279,-395,0,присед
1772469692773,279,-415,0,присед
1772469692774,279,-630,0,присед
1772469692775,279,-262,0,присед
1772469692776,279,526,0,присед
1772469692777,279,997,0,присед
1772469692778,279,1147,0,присед
1772469692778,279,937,0,присед
1772469692779,279,329,0,присед
1772469692780,279,-81,0,присед
1772469692781,279,-24,0,присед
1772469692781,279,123,0,присед
1772469692782,279,56,0,присед
1772469692783,279,-66,0,присед
1772469692784,279,-111,0,присед
1772469692784,279,-143,0,присед
1772469692785,279,-148,0,присед
1772469692786,279,-103,0,присед
1772469692787,279,-34,0,присед
1772469692788,279,-12,0,присед
1772469692788,279,-84,0,присед
1772469692789,279,-163,0,присед
1772469692790,279,-175,0,присед
1772469692791,279,-155,0,присед
1772469692792,279,-141,0,присед
1772469692793,279,-133,0,присед
1772469692793,279,-133,0,присед
1772469692794,279,-131,0,присед
1772469692795,279,-106,0,присед
1772469692796,279,-66,0,присед
1772469692797,279,-39,0,присед
1772469692797,279,-22,0,присед
1772469692798,279,-4,0,присед
1772469692799,279,17,0,присед
1772469692800,279,37,0,присед
1772469692810,279,14,0,присед
1772469692811,279,-22,0,присед
1772469692812,279,2,0,присед
1772469692813,279,37,0,присед
1772469692814,279,17,0,присед
1772469692814,279,-2,0,присед
1772469692815,279,2,0,присед
1772469692816,279,-14,0,присед
1772469692817,279,-61,0,присед
1772469692818,279,-64,0,присед
1772469692819,279,-32,0,присед
1772469692820,279,-17,0,присед
1772469692821,272,-17,0,присед
1772469692911,279,-17,0,присед
1772469693033,287,-17,0,присед
1772469693111,272,-17,0,присед
1772469693210,297,-17,0,присед
1772469693309,274,-17,0,присед
1772469693335,274,-24,0,присед
1772469693336,274,-22,0,присед
1772469693337,274,-9,0,присед
1772469693337,274,-9,0,присед
1772469693338,274,-22,0,присед
1772469693339,274,-49,0,присед
1772469693340,274,-66,0,присед
1772469693341,274,-47,0,присед
1772469693342,274,-24,0,присед
1772469693342,274,-14,0,присед
1772469693343,274,0,0,присед
1772469693344,274,22,0,присед
1772469693345,274,17,0,присед
1772469693346,274,-2,0,присед
1772469693346,274,-2,0,присед
1772469693347,274,14,0,присед
1772469693348,274,34,0,присед
1772469693349,274,34,0,присед
1772469693350,274,12,0,присед
1772469693350,274,17,0,присед
1772469693351,274,39,0,присед
1772469693352,274,2,0,присед
1772469693353,274,-84,0,присед
1772469693353,274,-69,0,присед
1772469693354,274,197,0,присед
1772469693355,274,677,0,присед
1772469693355,274,1048,0,присед
1772469693356,274,870,0,присед
1772469693358,274,291,0,присед
1772469693359,274,-4,0,присед
1772469693360,274,24,0,присед
1772469693360,274,-9,0,присед
1772469693361,274,-51,0,присед
1772469693362,274,-9,0,присед
1772469693362,274,-2,0,присед
1772469693363,274,-7,0,присед
1772469693363,274,-4,0,присед
1772469693364,274,-27,0,присед
1772469693365,274,-29,0,присед
1772469693366,274,-22,0,присед
1772469693367,274,-44,0,присед
1772469693368,274,-44,0,присед
1772469693368,274,-9,0,присед
1772469693369,274,9,0,присед
1772469693370,274,-19,0,присед
1772469693371,274,-44,0,присед
1772469693371,274,-32,0,присед
1772469693372,274,-19,0,присед
1772469693373,274,-2,0,присед
1772469693374,274,-7,0,присед
1772469693375,274,-34,0,присед
1772469693376,274,-4,0,присед
1772469693376,274,49,0,присед
1772469693377,274,47,0,присед
1772469693378,274,32,0,присед
1772469693379,274,59,0,присед
1772469693379,274,118,0,присед
1772469693380,274,101,0,присед
1772469693381,274,-17,0,присед
1772469693381,274,-47,0,присед
1772469693382,274,-2,0,присед
1772469693383,274,-42,0,присед
1772469693383,274,-86,0,присед
1772469693384,274,-81,0,присед
1772469693384,274,-106,0,присед
1772469693385,274,-168,0,присед
1772469693385,274,-190,0,присед
1772469693385,274,-145,0,присед
1772469693386,274,-126,0,присед
1772469693386,274,-195,0,присед
1772469693387,274,-220,0,присед
1772469693388,274,-185,0,присед
1772469693389,274,-192,0,присед
1772469693400,298,-192,0,присед
1772469693500,361,-192,0,присед
1772469693599,329,-192,0,присед
1772469693700,327,-192,0,присед
1772469693791,291,-192,0,присед
1772469693875,291,-178,0,присед
1772469693876,291,-180,0,присед
1772469693877,291,-264,0,присед
1772469693878,291,-237,0,присед
1772469693879,291,-136,0,присед
1772469693879,291,-168,0,присед
1772469693880,291,-195,0,присед
1772469693881,291,-141,0,присед
1772469693882,291,-148,0,присед
1772469693883,291,-195,0,присед
1772469693884,291,-217,0,присед
1772469693885,291,-215,0,присед
1772469693885,291,-205,0,присед
1772469693886,291,-210,0,присед
1772469693887,291,-230,0,присед
1772469693888,291,-294,0,присед
1772469693889,291,-363,0,присед
1772469693890,291,-200,0,присед
1772469693891,291,291,0,присед
1772469693891,291,754,0,присед
1772469693892,291,665,0,присед
1772469693893,291,94,0,присед
1772469693894,291,-262,0,присед
1772469693895,291,-188,0,присед
1772469693896,291,-183,0,присед
1772469693897,291,-301,0,присед
1772469693897,291,-301,0,присед
1772469693898,291,-279,0,присед
1772469693899,291,-279,0,присед
1772469693900,291,-254,0,присед
1772469693901,291,-237,0,присед
1772469693902,291,-247,0,присед
1772469693902,291,-262,0,присед
1772469693903,291,-277,0,присед
1772469693904,291,-235,0,присед
1772469693905,291,-210,0,присед
1772469693905,291,-272,0,присед
1772469693907,291,-269,0,присед
1772469693907,291,-190,0,присед
1772469693908,291,-180,0,присед
1772469693908,291,-190,0,присед
1772469693909,291,-150,0,присед
1772469693909,291,-121,0,присед
1772469693910,291,-118,0,присед
1772469693910,291,-113,0,присед
1772469693911,291,-98,0,присед
1772469693912,291,-56,0,присед
1772469693912,291,-9,0,присед
1772469693913,291,7,0,присед
1772469693913,291,4,0,присед
1772469693914,291,2,0,присед
1772469693914,291,-9,0,присед
1772469693915,291,-51,0,присед
1772469693915,291,-98,0,присед
1772469693915,291,-136,0,присед
1772469693916,291,-173,0,присед
1772469693916,291,-210,0,присед
1772469693917,291,-227,0,присед
1772469693917,291,-232,0,присед
1772469693918,291,-247,0,присед
1772469693918,291,-244,0,присед
1772469693918,291,-222,0,присед
1772469693919,291,-225,0,присед
1772469693919,291,-227,0,присед
1772469693920,291,-220,0,присед
1772469693920,291,-220,0,присед
1772469693921,291,-227,0,присед
1772469693921,291,-225,0,присед
1772469693922,291,-210,0,присед
1772469693922,291,-178,0,присед
1772469693923,291,-148,0,присед
1772469693923,291,-131,0,присед
1772469693924,291,-123,0,присед
1772469693925,322,-123,0,присед
1772469694014,341,-123,0,присед
1772469694135,317,-123,0,присед
1772469694213,286,-123,0,присед
1772469694336,327,-123,0,присед
1772469694415,327,-123,0,присед
1772469694416,327,-116,0,присед
1772469694417,327,-98,0,присед
1772469694418,327,-86,0,присед
1772469694419,327,-86,0,присед
1772469694420,327,-84,0,присед
1772469694421,327,-96,0,присед
1772469694422,327,-173,0,присед
1772469694424,327,-227,0,присед
1772469694425,327,-4,0,присед
1772469694425,327,517,0,присед
1772469694426,327,937,0,присед
1772469694427,327,796,0,присед
1772469694428,327,212,0,присед
1772469694429,327,-116,0,присед
1772469694429,327,-47,0,присед
1772469694430,327,-56,0,присед
1772469694431,327,-155,0,присед
1772469694432,327,-136,0,присед
1772469694433,327,-111,0,присед
1772469694433,327,-133,0,присед
1772469694434,327,-126,0,присед
1772469694435,327,-101,0,присед
1772469694436,327,-86,0,присед
1772469694437,327,-81,0,присед
1772469694438,327,-69,0,присед
1772469694439,327,-49,0,присед
1772469694440,327,-42,0,присед
1772469694441,327,-42,0,присед
1772469694442,327,-27,0,присед
1772469694443,327,-17,0,присед
1772469694443,327,-7,0,присед
1772469694444,327,7,0,присед
1772469694445,327,27,0,присед
1772469694446,327,47,0,присед
1772469694446,327,64,0,присед
1772469694447,327,84,0,присед
1772469694448,327,101,0,присед
1772469694449,327,111,0,присед
1772469694450,327,121,0,присед
1772469694450,327,128,0,присед
1772469694451,327,126,0,присед
1772469694452,327,116,0,присед
1772469694453,327,96,0,присед
1772469694453,327,56,0,присед
1772469694454,327,7,0,присед
1772469694455,327,-44,0,присед
1772469694455,327,-89,0,присед
1772469694456,327,-116,0,присед
1772469694457,327,-138,0,присед
1772469694458,327,-163,0,присед
1772469694459,327,-168,0,присед
1772469694460,327,-158,0,присед
1772469694461,327,-155,0,присед
1772469694461,327,-155,0,присед
1772469694462,327,-150,0,присед
1772469694463,327,-143,0,присед
1772469694464,327,-143,0,присед
1772469694465,327,-143,0,присед
1772469694466,327,-143,0,присед
1772469694466,327,-138,0,присед
1772469694467,327,-133,0,присед
1772469694468,327,-126,0,присед
1772469694469,327,-116,0,присед
1772469694470,327,-116,0,присед
1772469694470,327,-121,0,присед
1772469694471,327,-118,0,присед
1772469694472,327,-118,0,присед
1772469694473,327,-121,0,присед
1772469694474,327,-116,0,присед
1772469694475,327,-116,0,присед
1772469694476,327,-155,0,присед
1772469694477,327,-257,0,присед
1772469694479,299,-257,0,присед
1772469694503,312,-257,0,присед
1772469694602,259,-257,0,присед
1772469694704,386,-257,0,присед
1772469694803,298,-257,0,присед
1772469694894,300,-257,0,присед
1772469694992,288,-257,0,присед
1772469694999,288,-301,0,присед
1772469695000,288,-61,0,присед
1772469695001,288,462,0,присед
1772469695002,288,883,0,присед
1772469695003,288,747,0,присед
1772469695003,288,178,0,присед
1772469695004,288,-158,0,присед
1772469695005,288,-126,0,присед
1772469695006,288,-165,0,присед
1772469695007,288,-274,0,присед
1772469695007,288,-252,0,присед
1772469695008,288,-222,0,присед
1772469695009,288,-247,0,присед
1772469695010,288,-242,0,присед
1772469695011,288,-217,0,присед
1772469695012,288,-210,0,присед
1772469695013,288,-205,0,присед
1772469695014,288,-185,0,присед
1772469695014,288,-175,0,присед
1772469695015,288,-170,0,присед
1772469695016,288,-155,0,присед
1772469695017,288,-136,0,присед
1772469695017,288,-121,0,присед
1772469695018,288,-108,0,присед
1772469695019,288,-94,0,присед
1772469695020,288,-79,0,присед
1772469695021,288,-59,0,присед
1772469695022,288,-42,0,присед
1772469695024,288,-24,0,присед
1772469695024,288,-7,0,присед
1772469695025,288,0,0,присед
1772469695026,288,0,0,присед
1772469695027,288,2,0,присед
1772469695028,288,7,0,присед
1772469695029,288,14,0,присед
1772469695030,288,4,0,присед
1772469695030,288,-51,0,присед
1772469695031,288,-148,0,присед
1772469695032,288,-215,0,присед
1772469695033,288,-212,0,присед
1772469695034,288,-200,0,присед
1772469695035,288,-212,0,присед
1772469695036,288,-212,0,присед
1772469695037,288,-118,0,присед
1772469695039,288,178,0,присед
1772469695040,288,591,0,присед
1772469695041,288,531,0,присед
1772469695041,288,-141,0,присед
1772469695042,288,-440,0,присед
1772469695042,288,-217,0,присед
1772469695043,288,-227,0,присед
1772469695043,288,-356,0,присед
1772469695043,288,-286,0,присед
1772469695044,288,-239,0,присед
1772469695044,288,-259,0,присед
1772469695045,288,-200,0,присед
1772469695045,288,-131,0,присед
1772469695045,288,-145,0,присед
1772469695046,288,-180,0,присед
1772469695046,288,-183,0,присед
1772469695047,288,-170,0,присед
1772469695047,288,-148,0,присед
1772469695048,288,-126,0,присед
1772469695048,288,-123,0,присед
1772469695049,288,-163,0,присед
1772469695049,288,-277,0,присед
1772469695050,288,-304,0,присед
1772469695050,288,19,0,присед
1772469695050,288,613,0,присед
1772469695051,288,972,0,присед
1772469695052,288,695,0,присед
1772469695052,288,121,0,присед
1772469695053,288,-101,0,присед
1772469695096,327,-101,0,присед
1772469695195,289,-101,0,присед
1772469695309,292,-101,0,присед
1772469695411,273,-101,0,присед
1772469695511,371,-101,0,присед
1772469695605,330,-101,0,присед
1772469695674,330,-44,0,присед
1772469695675,330,-106,0,присед
1772469695676,330,-183,0,присед
1772469695677,330,-141,0,присед
1772469695678,330,-108,0,присед
1772469695679,330,-101,0,присед
1772469695679,330,9,0,присед
1772469695680,330,242,0,присед
1772469695681,330,484,0,присед
1772469695682,330,534,0,присед
1772469695683,330,116,0,присед
1772469695684,330,-311,0,присед
1772469695685,330,-153,0,присед
1772469695686,330,47,0,присед
1772469695687,330,-59,0,присед
1772469695688,330,-91,0,присед
1772469695689,330,-34,0,присед
1772469695689,330,-12,0,присед
1772469695690,330,34,0,присед
1772469695691,330,225,0,присед
1772469695692,330,638,0,присед
1772469695693,330,860,0,присед
1772469695693,330,380,0,присед
1772469695694,330,-227,0,присед
1772469695695,330,-165,0,присед
1772469695696,330,49,0,присед
1772469695697,330,-39,0,присед
1772469695698,330,-59,0,присед
1772469695698,330,-9,0,присед
1772469695699,330,-64,0,присед
1772469695700,330,-69,0,присед
1772469695700,330,-14,0,присед
1772469695701,330,-14,0,присед
1772469695701,330,-64,0,присед
1772469695702,330,-121,0,присед
1772469695702,330,-96,0,присед
1772469695703,330,-49,0,присед
1772469695703,330,-163,0,присед
1772469695704,330,-286,0,присед
1772469695704,330,-205,0,присед
1772469695704,330,-84,0,присед
1772469695705,330,-94,0,присед
1772469695705,330,-155,0,присед
1772469695706,330,-160,0,присед
1772469695706,330,-136,0,присед
1772469695707,330,-128,0,присед
1772469695707,330,-64,0,присед
1772469695708,330,-22,0,присед
1772469695708,330,-61,0,присед
1772469695708,330,34,0,присед
1772469695709,330,118,0,присед
1772469695709,330,-42,0,присед
1772469695710,330,-96,0,присед
1772469695710,330,29,0,присед
1772469695710,330,86,0,присед
1772469695711,330,338,0,присед
1772469695711,330,635,0,присед
1772469695712,330,361,0,присед
1772469695712,330,-145,0,присед
1772469695712,330,-257,0,присед
1772469695713,330,-76,0,присед
1772469695713,330,272,0,присед
1772469695714,330,813,0,присед
1772469695714,330,1058,0,присед
1772469695715,330,571,0,присед
1772469695715,330,-49,0,присед
1772469695715,330,-108,0,присед
1772469695716,330,-7,0,присед
1772469695716,330,-121,0,присед
1772469695717,330,-118,0,присед
1772469695717,330,-47,0,присед
1772469695717,330,-202,0,присед
1772469695718,330,-289,0,присед
1772469695718,373,-289,0,присед
1772469695802,377,-289,0,присед
1772469695905,277,-289,0,присед
1772469695999,289,-289,0,присед
1772469696098,326,-289,0,присед
1772469696197,354,-289,0,присед
1772469696214,354,-150,0,присед
1772469696216,354,-141,0,присед
1772469696217,354,-212,0,присед
1772469696218,354,-150,0,присед
1772469696219,354,-145,0,присед
1772469696220,354,-205,0,присед
1772469696221,354,-178,0,присед
1772469696221,354,-153,0,присед
1772469696222,354,-178,0,присед
1772469696224,354,-180,0,присед
1772469696225,354,-116,0,присед
1772469696226,354,-101,0,присед
1772469696226,354,-148,0,присед
1772469696227,354,-113,0,присед
1772469696228,354,-56,0,присед
1772469696229,354,-64,0,присед
1772469696230,354,-56,0,присед
1772469696231,354,-44,0,присед
1772469696232,354,-66,0,присед
1772469696233,354,-17,0,присед
1772469696234,354,9,0,присед
1772469696234,354,-69,0,присед
1772469696235,354,-89,0,присед
1772469696236,354,-86,0,присед
1772469696237,354,-188,0,присед
1772469696238,354,-252,0,присед
1772469696239,354,-249,0,присед
1772469696240,354,-282,0,присед
1772469696241,354,-274,0,присед
1772469696242,354,-264,0,присед
1772469696243,354,-314,0,присед
1772469696244,354,-306,0,присед
1772469696245,354,-291,0,присед
1772469696246,354,-319,0,присед
1772469696246,354,-324,0,присед
1772469696247,354,-351,0,присед
1772469696248,354,-353,0,присед
1772469696249,354,-304,0,присед
1772469696250,354,-306,0,присед
1772469696250,354,-311,0,присед
1772469696251,354,-282,0,присед
1772469696252,354,-279,0,присед
1772469696253,354,-272,0,присед
1772469696254,354,-252,0,присед
1772469696255,354,-269,0,присед
1772469696256,354,-294,0,присед
1772469696257,354,-269,0,присед
1772469696258,354,-235,0,присед
1772469696258,354,-264,0,присед
1772469696259,354,-368,0,присед
1772469696260,354,-442,0,присед
1772469696261,354,-259,0,присед
1772469696262,354,239,0,присед
1772469696262,354,690,0,присед
1772469696263,354,618,0,присед
1772469696264,354,64,0,присед
1772469696265,354,-314,0,присед
1772469696265,354,-252,0,присед
1772469696266,354,-225,0,присед
1772469696267,354,-336,0,присед
1772469696268,354,-326,0,присед
1772469696269,354,-284,0,присед
1772469696269,354,-306,0,присед
1772469696270,354,-299,0,присед
1772469696271,354,-269,0,присед
1772469696272,354,-267,0,присед
1772469696273,354,-272,0,присед
1772469696274,354,-269,0,присед
1772469696275,354,-264,0,присед
1772469696276,354,-254,0,присед
1772469696276,354,-239,0,присед
1772469696277,354,-237,0,присед
1772469696278,354,-232,0,присед
1772469696297,345,-232,0,присед
1772469696411,344,-232,0,присед
1772469696510,325,-232,0,присед
1772469696608,308,-232,0,присед
1772469696709,308,-212,0,присед
1772469696711,308,-192,0,присед
1772469696712,308,-178,0,присед
1772469696713,308,-170,0,присед
1772469696714,308,-150,0,присед
1772469696715,308,-111,0,присед
1772469696716,308,-86,0,присед
1772469696717,308,-89,0,присед
1772469696718,308,-91,0,присед
1772469696719,308,-86,0,присед
1772469696719,308,-94,0,присед
1772469696720,308,-113,0,присед
1772469696721,308,-153,0,присед
1772469696722,308,-207,0,присед
1772469696723,308,-262,0,присед
1772469696724,308,-319,0,присед
1772469696726,308,-368,0,присед
1772469696727,308,-393,0,присед
1772469696727,308,-405,0,присед
1772469696728,308,-418,0,присед
1772469696729,308,-425,0,присед
1772469696730,308,-437,0,присед
1772469696730,308,-452,0,присед
1772469696731,308,-457,0,присед
1772469696732,308,-460,0,присед
1772469696733,308,-462,0,присед
1772469696734,308,-467,0,присед
1772469696734,308,-477,0,присед
1772469696735,308,-479,0,присед
1772469696736,308,-462,0,присед
1772469696736,308,-437,0,присед
1772469696737,308,-432,0,присед
1772469696738,308,-425,0,присед
1772469696739,308,-420,0,присед
1772469696740,308,-425,0,присед
1772469696741,308,-423,0,присед
1772469696742,308,-410,0,присед
1772469696743,308,-408,0,присед
1772469696744,308,-405,0,присед
1772469696745,308,-400,0,присед
1772469696746,308,-427,0,присед
1772469696747,308,-522,0,присед
1772469696748,308,-522,0,присед
1772469696748,308,-185,0,присед
1772469696749,308,378,0,присед
1772469696750,308,702,0,присед
1772469696751,308,420,0,присед
1772469696752,308,-150,0,присед
1772469696752,308,-366,0,присед
1772469696753,308,-304,0,присед
1772469696754,308,-366,0,присед
1772469696755,308,-440,0,присед
1772469696756,308,-398,0,присед
1772469696757,308,-380,0,присед
1772469696758,308,-400,0,присед
1772469696758,308,-385,0,присед
1772469696759,308,-368,0,присед
1772469696760,308,-363,0,присед
1772469696761,308,-353,0,присед
1772469696761,308,-338,0,присед
1772469696762,308,-336,0,присед
1772469696763,308,-338,0,присед
1772469696764,308,-326,0,присед
1772469696764,308,-314,0,присед
1772469696765,308,-311,0,присед
1772469696766,308,-301,0,присед
1772469696767,308,-282,0,присед
1772469696768,308,-262,0,присед
1772469696768,308,-237,0,присед
1772469696769,308,-197,0,присед
1772469696770,308,-165,0,присед
1772469696770,308,-150,0,присед
1772469696771,308,-141,0,присед
1772469696773,291,-141,0,присед
1772469696808,286,-141,0,присед
1772469696907,421,-141,0,присед
1772469697005,341,-141,0,присед
1772469697099,287,-141,0,присед
1772469697199,268,-141,0,присед
1772469697205,268,-128,0,присед
1772469697206,268,-126,0,присед
1772469697207,268,-133,0,присед
1772469697209,268,-145,0,присед
1772469697210,268,-180,0,присед
1772469697211,268,-225,0,присед
1772469697212,268,-264,0,присед
1772469697213,268,-304,0,присед
1772469697214,268,-341,0,присед
1772469697214,268,-363,0,присед
1772469697215,268,-373,0,присед
1772469697216,268,-388,0,присед
1772469697217,268,-405,0,присед
1772469697218,268,-420,0,присед
1772469697218,268,-435,0,присед
1772469697219,268,-447,0,присед
1772469697220,268,-457,0,присед
1772469697221,268,-472,0,присед
1772469697222,268,-484,0,присед
1772469697223,268,-497,0,присед
1772469697224,268,-509,0,присед
1772469697225,268,-507,0,присед
1772469697226,268,-489,0,присед
1772469697227,268,-472,0,присед
1772469697228,268,-460,0,присед
1772469697229,268,-472,0,присед
1772469697229,268,-504,0,присед
1772469697230,268,-534,0,присед
1772469697231,268,-554,0,присед
1772469697232,268,-559,0,присед
1772469697232,268,-561,0,присед
1772469697233,268,-561,0,присед
1772469697234,268,-554,0,присед
1772469697235,268,-564,0,присед
1772469697236,268,-665,0,присед
1772469697237,268,-786,0,присед
1772469697238,268,-653,0,присед
1772469697239,268,-145,0,присед
1772469697240,268,405,0,присед
1772469697240,268,445,0,присед
1772469697241,268,-113,0,присед
1772469697242,268,-638,0,присед
1772469697243,268,-707,0,присед
1772469697244,268,-677,0,присед
1772469697245,268,-769,0,присед
1772469697246,268,-794,0,присед
1772469697247,268,-757,0,присед
1772469697247,268,-761,0,присед
1772469697248,268,-774,0,присед
1772469697249,268,-764,0,присед
1772469697250,268,-786,0,присед
1772469697251,268,-804,0,присед
1772469697251,268,-752,0,присед
1772469697252,268,-734,0,присед
1772469697253,268,-808,0,присед
1772469697254,268,-831,0,присед
1772469697255,268,-769,0,присед
1772469697255,268,-747,0,присед
1772469697256,268,-749,0,присед
1772469697257,268,-722,0,присед
1772469697258,268,-702,0,присед
1772469697258,268,-710,0,присед
1772469697259,268,-714,0,присед
1772469697260,268,-700,0,присед
1772469697260,268,-677,0,присед
1772469697262,268,-650,0,присед
1772469697262,268,-625,0,присед
1772469697263,268,-628,0,присед
1772469697264,268,-628,0,присед
1772469697265,268,-606,0,присед
1772469697266,268,-603,0,присед
1772469697266,268,-620,0,присед
1772469697267,268,-630,0,присед
1772469697302,271,-630,0,присед
1772469697401,273,-630,0,присед
1772469697514,356,-630,0,присед
1772469697592,288,-630,0,присед
1772469697691,296,-630,0,присед
1772469697810,260,-630,0,присед
1772469697834,260,-655,0,присед
1772469697836,260,-672,0,присед
1772469697837,260,-658,0,присед
1772469697838,260,-635,0,присед
1772469697840,260,-633,0,присед
1772469697841,260,-648,0,присед
1772469697841,260,-677,0,присед
1772469697842,260,-667,0,присед
1772469697843,260,-608,0,присед
1772469697844,260,-593,0,присед
1772469697844,260,-623,0,присед
1772469697845,260,-593,0,присед
1772469697846,260,-512,0,присед
1772469697847,260,-499,0,присед
1772469697848,260,-517,0,присед
1772469697848,260,-460,0,присед
1772469697849,260,-410,0,присед
1772469697850,260,-420,0,присед
1772469697851,260,-383,0,присед
1772469697852,260,-324,0,присед
1772469697853,260,-321,0,присед
1772469697854,260,-316,0,присед
1772469697855,260,-267,0,присед
1772469697856,260,-205,0,присед
1772469697858,260,-192,0,присед
1772469697859,260,-235,0,присед
1772469697860,260,-222,0,присед
1772469697861,260,-175,0,присед
1772469697862,260,-254,0,присед
1772469697863,260,-336,0,присед
1772469697864,260,-17,0,присед
1772469697865,260,675,0,присед
1772469697866,260,1076,0,присед
1772469697867,260,761,0,присед
1772469697868,260,210,0,присед
1772469697869,260,4,0,присед
1772469697870,260,47,0,присед
1772469697871,260,-2,0,присед
1772469697872,260,-76,0,присед
1772469697873,260,-19,0,присед
1772469697873,260,17,0,присед
1772469697874,260,-2,0,присед
1772469697875,260,29,0,присед
1772469697876,260,64,0,присед
1772469697876,260,56,0,присед
1772469697877,260,64,0,присед
1772469697878,260,113,0,присед
1772469697879,260,165,0,присед
1772469697879,260,190,0,присед
1772469697880,260,180,0,присед
1772469697881,260,175,0,присед
1772469697881,260,222,0,присед
1772469697882,260,351,0,присед
1772469697883,260,591,0,присед
1772469697884,260,645,0,присед
1772469697885,260,455,0,присед
1772469697885,260,467,0,присед
1772469697886,260,734,0,присед
1772469697887,260,1083,0,присед
1772469697888,260,1009,0,присед
1772469697889,260,430,0,присед
1772469697889,260,299,0,присед
1772469697890,260,546,0,присед
1772469697891,260,534,0,присед
1772469697892,260,514,0,присед
1772469697893,260,541,0,присед
1772469697894,260,554,0,присед
1772469697894,260,573,0,присед
1772469697895,260,410,0,присед
1772469697896,260,460,0,присед
1772469697897,260,910,0,присед
1772469697898,260,875,0,присед
1772469697898,260,437,0,присед
1772469697910,288,437,0,присед
1772469698010,297,437,0,присед
1772469698110,329,437,0,присед
1772469698201,292,437,0,присед
1772469698302,320,437,0,присед
1772469698329,320,544,0,присед
1772469698331,320,620,0,присед
1772469698331,320,277,0,присед
1772469698332,320,331,0,присед
1772469698333,320,680,0,присед
1772469698334,320,801,0,присед
1772469698335,320,586,0,присед
1772469698336,320,254,0,присед
1772469698336,320,252,0,присед
1772469698337,320,378,0,присед
1772469698338,320,376,0,присед
1772469698339,320,418,0,присед
1772469698340,320,479,0,присед
1772469698341,320,583,0,присед
1772469698342,320,796,0,присед
1772469698344,320,833,0,присед
1772469698345,320,799,0,присед
1772469698346,320,1046,0,присед
1772469698347,320,1091,0,присед
1772469698348,320,564,0,присед
1772469698349,320,163,0,присед
1772469698349,320,336,0,присед
1772469698350,320,821,0,присед
1772469698351,320,1308,0,присед
1772469698352,320,1360,0,присед
1772469698353,320,833,0,присед
1772469698353,320,410,0,присед
1772469698354,320,447,0,присед
1772469698355,320,489,0,присед
1772469698356,320,400,0,присед
1772469698357,320,408,0,присед
1772469698358,320,465,0,присед
1772469698359,320,472,0,присед
1772469698360,320,470,0,присед
1772469698360,320,487,0,присед
1772469698361,320,499,0,присед
1772469698362,320,492,0,присед
1772469698363,320,517,0,присед
1772469698364,320,556,0,присед
1772469698364,320,559,0,присед
1772469698365,320,559,0,присед
1772469698366,320,593,0,присед
1772469698366,320,623,0,присед
1772469698367,320,638,0,присед
1772469698368,320,658,0,присед
1772469698369,320,695,0,присед
1772469698369,320,717,0,присед
1772469698370,320,729,0,присед
1772469698371,320,764,0,присед
1772469698373,320,801,0,присед
1772469698374,320,821,0,присед
1772469698375,320,836,0,присед
1772469698376,320,843,0,присед
1772469698377,320,843,0,присед
1772469698378,320,833,0,присед
1772469698379,320,806,0,присед
1772469698380,320,766,0,присед
1772469698381,320,729,0,присед
1772469698382,320,695,0,присед
1772469698383,320,658,0,присед
1772469698384,320,623,0,присед
1772469698385,320,591,0,присед
1772469698386,320,583,0,присед
1772469698387,320,588,0,присед
1772469698388,320,576,0,присед
1772469698389,320,561,0,присед
1772469698390,320,561,0,присед
1772469698391,320,554,0,присед
1772469698392,320,544,0,присед
1772469698392,320,546,0,присед
1772469698393,320,541,0,присед
1772469698394,320,534,0,присед
1772469698395,320,544,0,присед
1772469698401,310,544,0,присед
1772469698501,363,544,0,присед
1772469698592,306,544,0,присед
1772469698696,291,544,0,присед
1772469698794,250,544,0,присед
1772469698914,250,566,0,присед
1772469698916,250,581,0,присед
1772469698917,250,583,0,присед
1772469698918,250,573,0,присед
1772469698919,250,566,0,присед
1772469698920,250,566,0,присед
1772469698921,250,559,0,присед
1772469698922,250,544,0,присед
1772469698923,250,549,0,присед
1772469698924,250,551,0,присед
1772469698925,250,489,0,присед
1772469698926,250,398,0,присед
1772469698927,250,507,0,присед
1772469698928,250,947,0,присед
1772469698928,250,1439,0,присед
1772469698929,250,1484,0,присед
1772469698930,250,997,0,присед
1772469698931,250,544,0,присед
1772469698932,250,519,0,присед
1772469698932,250,561,0,присед
1772469698933,250,455,0,присед
1772469698934,250,423,0,присед
1772469698935,250,460,0,присед
1772469698936,250,452,0,присед
1772469698937,250,435,0,присед
1772469698938,250,450,0,присед
1772469698939,250,457,0,присед
1772469698940,250,452,0,присед
1772469698941,250,447,0,присед
1772469698942,250,442,0,присед
1772469698943,250,440,0,присед
1772469698943,250,450,0,присед
1772469698944,250,465,0,присед
1772469698945,250,462,0,присед
1772469698945,250,452,0,присед
1772469698946,250,457,0,присед
1772469698947,250,484,0,присед
1772469698948,250,499,0,присед
1772469698948,250,499,0,присед
1772469698949,250,509,0,присед
1772469698950,250,526,0,присед
1772469698950,250,529,0,присед
1772469698951,250,522,0,присед
1772469698952,250,514,0,присед
1772469698953,250,509,0,присед
1772469698953,250,497,0,присед
1772469698954,250,467,0,присед
1772469698955,250,418,0,присед
1772469698956,250,363,0,присед
1772469698957,250,309,0,присед
1772469698957,250,267,0,присед
1772469698958,250,239,0,присед
1772469698959,250,225,0,присед
1772469698960,250,212,0,присед
1772469698960,250,197,0,присед
1772469698961,250,185,0,присед
1772469698962,250,170,0,присед
1772469698962,250,160,0,присед
1772469698963,250,168,0,присед
1772469698964,250,158,0,присед
1772469698965,250,136,0,присед
1772469698965,250,128,0,присед
1772469698966,250,128,0,присед
1772469698967,250,131,0,присед
1772469698968,250,148,0,присед
1772469698969,250,168,0,присед
1772469698969,250,175,0,присед
1772469698970,250,173,0,присед
1772469698971,250,173,0,присед
1772469698972,250,188,0,присед
1772469698972,250,195,0,присед
1772469698973,250,183,0,присед
1772469698974,250,180,0,присед
1772469698975,254,180,0,присед
1772469699013,256,180,0,присед
1772469699094,257,180,0,присед
1772469699194,258,180,0,присед
1772469699303,258,180,0,присед
1772469699404,259,180,0,присед
1772469699499,259,183,0,присед
1772469699500,259,158,0,присед
1772469699502,259,79,0,присед
1772469699503,259,9,0,присед
1772469699504,259,163,0,присед
1772469699505,259,630,0,присед
1772469699506,259,1115,0,присед
1772469699507,259,1130,0,присед
1772469699508,259,606,0,присед
1772469699509,259,158,0,присед
1772469699510,259,141,0,присед
1772469699510,259,141,0,присед
1772469699511,259,22,0,присед
1772469699512,259,19,0,присед
1772469699513,259,56,0,присед
1772469699514,259,32,0,присед
1772469699515,259,29,0,присед
1772469699515,259,51,0,присед
1772469699516,259,56,0,присед
1772469699517,259,66,0,присед
1772469699518,259,74,0,присед
1772469699519,259,59,0,присед
1772469699520,259,59,0,присед
1772469699521,259,76,0,присед
1772469699521,259,86,0,присед
1772469699522,259,91,0,присед
1772469699524,259,103,0,присед
1772469699524,259,113,0,присед
1772469699525,259,126,0,присед
1772469699526,259,148,0,присед
1772469699527,259,168,0,присед
