timestamp,gsr,ecg,interval,label
1775165813595,409,-579,0,пресс
1775165813596,409,-579,0,пресс
1775165813596,408,-579,0,пресс
1775165813597,413,-579,0,пресс
1775165813597,410,-579,0,пресс
1775165813598,407,-579,0,пресс
1775165813598,408,-579,0,пресс
1775165813599,408,-579,0,пресс
1775165813599,415,-579,0,пресс
1775165813600,407,-579,0,пресс
1775165813747,407,-522,0,пресс
1775165813747,407,-483,0,пресс
1775165813748,407,-361,0,пресс
1775165813749,407,-317,0,пресс
1775165813750,407,-265,0,пресс
1775165813751,407,-215,0,пресс
1775165813752,407,-356,0,пресс
1775165813752,407,-351,0,пресс
1775165813753,407,-188,0,пресс
1775165813753,407,-294,0,пресс
1775165813754,407,-403,0,пресс
1775165813763,407,-240,0,пресс
1775165813764,407,-156,0,пресс
1775165813764,407,-267,0,пресс
1775165813765,407,-294,0,пресс
1775165813765,407,-151,0,пресс
1775165813766,407,-91,0,пресс
1775165813766,407,-230,0,пресс
1775165813767,407,-314,0,пресс
1775165813767,407,-138,0,пресс
1775165813768,407,17,0,пресс
1775165813768,407,-133,0,пресс
1775165813768,407,-232,0,пресс
1775165813769,407,-148,0,пресс
1775165813769,407,-133,0,пресс
1775165813770,407,-141,0,пресс
1775165813770,407,-178,0,пресс
1775165813771,407,-188,0,пресс
1775165813771,407,-91,0,пресс
1775165813771,407,-128,0,пресс
1775165813772,407,-257,0,пресс
1775165813773,407,-173,0,пресс
1775165813773,407,158,0,пресс
1775165813774,407,341,0,пресс
1775165813774,407,-29,0,пресс
1775165813775,407,-441,0,пресс
1775165813775,407,-346,0,пресс
1775165813776,407,-195,0,пресс
1775165813776,407,-275,0,пресс
1775165813776,407,-324,0,пресс
1775165813777,407,-284,0,пресс
1775165813777,407,-275,0,пресс
1775165813778,407,-287,0,пресс
1775165813778,407,-304,0,пресс
1775165813778,407,-327,0,пресс
1775165813779,407,-322,0,пресс
1775165813779,407,-307,0,пресс
1775165813780,407,-317,0,пресс
1775165813780,407,-334,0,пресс
1775165813781,407,-339,0,пресс
1775165813781,407,-337,0,пресс
1775165813782,407,-319,0,пресс
1775165813782,407,-314,0,пресс
1775165813783,407,-317,0,пресс
1775165813783,407,-304,0,пресс
1775165813784,407,-277,0,пресс
1775165813784,407,-240,0,пресс
1775165813784,407,-218,0,пресс
1775165813785,407,-198,0,пресс
1775165813785,407,-166,0,пресс
1775165813786,407,-156,0,пресс
1775165813786,407,-163,0,пресс
1775165813787,407,-180,0,пресс
1775165813787,407,-232,0,пресс
1775165813787,407,-282,0,пресс
1775165813788,407,-294,0,пресс
1775165813789,407,-312,0,пресс
1775165813789,407,-346,0,пресс
1775165813790,407,-349,0,пресс
1775165813790,407,-332,0,пресс
1775165813791,407,-337,0,пресс
1775165813791,407,-349,0,пресс
1775165813792,407,-346,0,пресс
1775165814376,407,-327,0,пресс
1775165814376,407,-319,0,пресс
1775165814378,407,-339,0,пресс
1775165814379,407,-341,0,пресс
1775165814379,407,-322,0,пресс
1775165814380,407,-312,0,пресс
1775165814381,407,-337,0,пресс
1775165814381,407,-381,0,пресс
1775165814382,407,-366,0,пресс
1775165814383,407,-297,0,пресс
1775165814383,407,-287,0,пресс
1775165814384,407,-344,0,пресс
1775165814384,407,-369,0,пресс
1775165814385,407,-327,0,пресс
1775165814385,407,-247,0,пресс
1775165814386,407,-232,0,пресс
1775165814386,407,-260,0,пресс
1775165814386,407,-210,0,пресс
1775165814387,407,-175,0,пресс
1775165814387,407,-247,0,пресс
1775165814388,407,-309,0,пресс
1775165814388,407,-275,0,пресс
1775165814389,407,-218,0,пресс
1775165814390,407,-223,0,пресс
1775165814390,407,-235,0,пресс
1775165814391,407,-223,0,пресс
1775165814391,407,-255,0,пресс
1775165814392,407,-284,0,пресс
1775165814392,407,-230,0,пресс
1775165814392,407,-193,0,пресс
1775165814393,407,-255,0,пресс
1775165814393,407,-280,0,пресс
1775165814394,407,-183,0,пресс
1775165814394,407,-143,0,пресс
1775165814395,407,-242,0,пресс
1775165814395,407,-250,0,пресс
1775165814395,407,-141,0,пресс
1775165814396,407,-158,0,пресс
1775165814396,407,-205,0,пресс
1775165814397,407,-180,0,пресс
1775165814397,407,-240,0,пресс
1775165814398,407,-329,0,пресс
1775165814398,407,-220,0,пресс
1775165814399,407,91,0,пресс
1775165814399,407,366,0,пресс
1775165814400,407,193,0,пресс
1775165814400,407,-227,0,пресс
1775165814401,407,-282,0,пресс
1775165814401,407,-168,0,пресс
1775165814401,407,-235,0,пресс
1775165814402,407,-242,0,пресс
1775165814402,407,-175,0,пресс
1775165814403,407,-227,0,пресс
1775165814403,407,-237,0,пресс
1775165814404,407,-168,0,пресс
1775165814404,407,-180,0,пресс
1775165814405,407,-237,0,пресс
1775165814405,407,-218,0,пресс
1775165814406,407,-146,0,пресс
1775165814406,407,-141,0,пресс
1775165814407,407,-203,0,пресс
1775165814407,407,-178,0,пресс
1775165814408,407,-71,0,пресс
1775165814408,407,-81,0,пресс
1775165814409,407,-170,0,пресс
1775165814409,407,-153,0,пресс
1775165814410,407,-49,0,пресс
1775165814410,407,-22,0,пресс
1775165814410,407,-79,0,пресс
1775165814411,407,2,0,пресс
1775165814411,407,121,0,пресс
1775165814412,407,24,0,пресс
1775165814412,407,-47,0,пресс
1775165814602,407,-47,0,пресс
1775165814603,407,-47,0,пресс
1775165814604,407,-47,0,пресс
1775165814605,407,-47,0,пресс
1775165814605,407,-47,0,пресс
1775165814606,408,-47,0,пресс
1775165814606,408,-47,0,пресс
1775165814607,407,-47,0,пресс
1775165814607,406,-47,0,пресс
1775165814608,406,-47,0,пресс
1775165814871,406,14,0,пресс
1775165814871,406,-29,0,пресс
1775165814872,406,-126,0,пресс
1775165814873,406,-128,0,пресс
1775165814874,406,-126,0,пресс
1775165814875,406,-193,0,пресс
1775165814876,406,-245,0,пресс
1775165814876,406,-220,0,пресс
1775165814877,406,-193,0,пресс
1775165814877,406,-220,0,пресс
1775165814877,406,-255,0,пресс
1775165814878,406,-218,0,пресс
1775165814878,406,-188,0,пресс
1775165814879,406,-250,0,пресс
1775165814880,406,-277,0,пресс
1775165814880,406,-213,0,пресс
1775165814881,406,-208,0,пресс
1775165814881,406,-272,0,пресс
1775165814882,406,-282,0,пресс
1775165814882,406,-245,0,пресс
1775165814882,406,-245,0,пресс
1775165814883,406,-287,0,пресс
1775165814883,406,-289,0,пресс
1775165814884,406,-262,0,пресс
1775165814884,406,-267,0,пресс
1775165814885,406,-284,0,пресс
1775165814885,406,-284,0,пресс
1775165814886,406,-287,0,пресс
1775165814886,406,-289,0,пресс
1775165814887,406,-280,0,пресс
1775165814887,406,-282,0,пресс
1775165814888,406,-322,0,пресс
1775165814889,406,-341,0,пресс
1775165814889,406,-312,0,пресс
1775165814890,406,-312,0,пресс
1775165814890,406,-349,0,пресс
1775165814890,406,-374,0,пресс
1775165814891,406,-396,0,пресс
1775165814891,406,-394,0,пресс
1775165814892,406,-381,0,пресс
1775165814892,406,-394,0,пресс
1775165814893,406,-391,0,пресс
1775165814893,406,-359,0,пресс
1775165814893,406,-337,0,пресс
1775165814894,406,-334,0,пресс
1775165814894,406,-349,0,пресс
1775165814895,406,-344,0,пресс
1775165814895,406,-307,0,пресс
1775165814896,406,-304,0,пресс
1775165814896,406,-309,0,пресс
1775165814897,406,-267,0,пресс
1775165814897,406,-255,0,пресс
1775165814898,406,-309,0,пресс
1775165814898,406,-322,0,пресс
1775165814898,406,-136,0,пресс
1775165814899,406,223,0,пресс
1775165814899,406,277,0,пресс
1775165814900,406,-166,0,пресс
1775165814900,406,-448,0,пресс
1775165814901,406,-319,0,пресс
1775165814901,406,-242,0,пресс
1775165814901,406,-312,0,пресс
1775165814902,406,-332,0,пресс
1775165814902,406,-322,0,пресс
1775165814903,406,-317,0,пресс
1775165814903,406,-297,0,пресс
1775165814904,406,-299,0,пресс
1775165814904,406,-324,0,пресс
1775165814905,406,-324,0,пресс
1775165814905,406,-309,0,пресс
1775165814906,406,-297,0,пресс
1775165814906,406,-294,0,пресс
1775165814907,406,-299,0,пресс
1775165815412,406,-287,0,пресс
1775165815412,406,-275,0,пресс
1775165815413,406,-272,0,пресс
1775165815413,406,-257,0,пресс
1775165815414,406,-220,0,пресс
1775165815415,406,-185,0,пресс
1775165815416,406,-161,0,пресс
1775165815416,406,-136,0,пресс
1775165815417,406,-94,0,пресс
1775165815417,406,-89,0,пресс
1775165815417,406,-113,0,пресс
1775165815418,406,-123,0,пресс
1775165815418,406,-146,0,пресс
1775165815419,406,-200,0,пресс
1775165815419,406,-240,0,пресс
1775165815419,406,-277,0,пресс
1775165815420,406,-322,0,пресс
1775165815420,406,-346,0,пресс
1775165815421,406,-364,0,пресс
1775165815422,406,-366,0,пресс
1775165815423,406,-344,0,пресс
1775165815424,406,-319,0,пресс
1775165815424,406,-324,0,пресс
1775165815425,406,-334,0,пресс
1775165815425,406,-304,0,пресс
1775165815426,406,-294,0,пресс
1775165815426,406,-307,0,пресс
1775165815427,406,-275,0,пресс
1775165815427,406,-245,0,пресс
1775165815428,406,-282,0,пресс
1775165815428,406,-317,0,пресс
1775165815429,406,-287,0,пресс
1775165815429,406,-265,0,пресс
1775165815430,406,-277,0,пресс
1775165815430,406,-267,0,пресс
1775165815431,406,-270,0,пресс
1775165815431,406,-272,0,пресс
1775165815432,406,-220,0,пресс
1775165815432,406,-200,0,пресс
1775165815433,406,-247,0,пресс
1775165815433,406,-272,0,пресс
1775165815434,406,-250,0,пресс
1775165815434,406,-232,0,пресс
1775165815435,406,-250,0,пресс
1775165815435,406,-260,0,пресс
1775165815436,406,-242,0,пресс
1775165815436,406,-227,0,пресс
1775165815436,406,-213,0,пресс
1775165815438,406,-218,0,пресс
1775165815439,406,-255,0,пресс
1775165815439,406,-262,0,пресс
1775165815441,406,-232,0,пресс
1775165815441,406,-237,0,пресс
1775165815441,406,-242,0,пресс
1775165815441,406,-195,0,пресс
1775165815442,406,-166,0,пресс
1775165815442,406,-170,0,пресс
1775165815443,406,-185,0,пресс
1775165815443,406,-205,0,пресс
1775165815444,406,-210,0,пресс
1775165815444,406,-195,0,пресс
1775165815445,406,-188,0,пресс
1775165815446,406,-173,0,пресс
1775165815446,406,-200,0,пресс
1775165815447,406,-265,0,пресс
1775165815447,406,-94,0,пресс
1775165815447,406,245,0,пресс
1775165815448,406,166,0,пресс
1775165815448,406,-277,0,пресс
1775165815449,406,-386,0,пресс
1775165815449,406,-215,0,пресс
1775165815449,406,-213,0,пресс
1775165815450,406,-267,0,пресс
1775165815624,406,-267,0,пресс
1775165815625,404,-267,0,пресс
1775165815625,403,-267,0,пресс
1775165815626,403,-267,0,пресс
1775165815627,402,-267,0,пресс
1775165815627,402,-267,0,пресс
1775165815628,403,-267,0,пресс
1775165815628,400,-267,0,пресс
1775165815629,399,-267,0,пресс
1775165815630,400,-267,0,пресс
1775165815630,400,-267,0,пресс
1775165816041,400,-200,0,пресс
1775165816041,400,-153,0,пресс
1775165816042,400,-185,0,пресс
1775165816043,400,-210,0,пресс
1775165816044,400,-220,0,пресс
1775165816045,400,-203,0,пресс
1775165816046,400,-116,0,пресс
1775165816046,400,-113,0,пресс
1775165816047,400,-220,0,пресс
1775165816047,400,-183,0,пресс
1775165816048,400,-79,0,пресс
1775165816048,400,-99,0,пресс
1775165816049,400,-109,0,пресс
1775165816049,400,-59,0,пресс
1775165816050,400,-69,0,пресс
1775165816050,400,-94,0,пресс
1775165816051,400,-37,0,пресс
1775165816051,400,17,0,пресс
1775165816052,400,-17,0,пресс
1775165816052,400,19,0,пресс
1775165816053,400,121,0,пресс
1775165816053,400,49,0,пресс
1775165816053,400,-39,0,пресс
1775165816054,400,24,0,пресс
1775165816054,400,4,0,пресс
1775165816055,400,-121,0,пресс
1775165816056,400,-141,0,пресс
1775165816057,400,-96,0,пресс
1775165816057,400,-158,0,пресс
1775165816058,400,-213,0,пресс
1775165816059,400,-151,0,пресс
1775165816059,400,-128,0,пресс
1775165816059,400,-166,0,пресс
1775165816060,400,-183,0,пресс
1775165816060,400,-173,0,пресс
1775165816061,400,-136,0,пресс
1775165816061,400,-94,0,пресс
1775165816062,400,-61,0,пресс
1775165816062,400,-74,0,пресс
1775165816063,400,-126,0,пресс
1775165816063,400,-128,0,пресс
1775165816063,400,-99,0,пресс
1775165816064,400,-121,0,пресс
1775165816064,400,-109,0,пресс
1775165816065,400,-14,0,пресс
1775165816065,400,-24,0,пресс
1775165816066,400,-116,0,пресс
1775165816066,400,-101,0,пресс
1775165816066,400,-52,0,пресс
1775165816067,400,-64,0,пресс
1775165816067,400,-126,0,пресс
1775165816068,400,-153,0,пресс
1775165816068,400,-76,0,пресс
1775165816068,400,-14,0,пресс
1775165816069,400,-19,0,пресс
1775165816069,400,-2,0,пресс
1775165816070,400,-47,0,пресс
1775165816070,400,-153,0,пресс
1775165816071,400,-123,0,пресс
1775165816071,400,-37,0,пресс
1775165816072,400,-42,0,пресс
1775165816072,400,-49,0,пресс
1775165816073,400,-44,0,пресс
1775165816074,400,-84,0,пресс
1775165816075,400,-101,0,пресс
1775165816075,400,-64,0,пресс
1775165816075,400,-29,0,пресс
1775165816076,400,-9,0,пресс
1775165816076,400,-39,0,пресс
1775165816077,400,-131,0,пресс
1775165816077,400,-104,0,пресс
1775165816078,400,-7,0,пресс
1775165816078,400,-47,0,пресс
1775165816580,400,-163,0,пресс
1775165816581,400,-205,0,пресс
1775165816582,400,-109,0,пресс
1775165816582,400,190,0,пресс
1775165816583,400,384,0,пресс
1775165816583,400,-2,0,пресс
1775165816584,400,-488,0,пресс
1775165816584,400,-428,0,пресс
1775165816585,400,-175,0,пресс
1775165816586,400,-141,0,пресс
1775165816587,400,-143,0,пресс
1775165816588,400,-71,0,пресс
1775165816588,400,-96,0,пресс
1775165816589,400,-190,0,пресс
1775165816589,400,-143,0,пресс
1775165816590,400,-54,0,пресс
1775165816590,400,-101,0,пресс
1775165816591,400,-131,0,пресс
1775165816591,400,-69,0,пресс
1775165816591,400,-56,0,пресс
1775165816592,400,-37,0,пресс
1775165816592,400,-7,0,пресс
1775165816593,400,-69,0,пресс
1775165816593,400,-128,0,пресс
1775165816594,400,-59,0,пресс
1775165816594,400,84,0,пресс
1775165816595,400,121,0,пресс
1775165816595,400,49,0,пресс
1775165816595,400,94,0,пресс
1775165816596,400,200,0,пресс
1775165816596,400,215,0,пресс
1775165816597,400,227,0,пресс
1775165816597,400,235,0,пресс
1775165816598,400,133,0,пресс
1775165816598,400,34,0,пресс
1775165816599,400,29,0,пресс
1775165816599,400,22,0,пресс
1775165816599,400,-59,0,пресс
1775165816600,400,-101,0,пресс
1775165816600,400,-71,0,пресс
1775165816601,400,-71,0,пресс
1775165816601,400,-94,0,пресс
1775165816602,400,-118,0,пресс
1775165816602,400,-113,0,пресс
1775165816603,400,-54,0,пресс
1775165816603,400,-89,0,пресс
1775165816604,400,-146,0,пресс
1775165816604,400,299,0,пресс
1775165816605,400,1593,0,пресс
1775165816606,400,2007,0,пресс
1775165816606,400,998,0,пресс
1775165816607,400,1246,0,пресс
1775165816607,400,1457,0,пресс
1775165816608,400,641,0,пресс
1775165816608,400,2383,0,пресс
1775165816608,400,4423,0,пресс
1775165816609,400,3201,0,пресс
1775165816609,400,2136,0,пресс
1775165816610,400,2765,0,пресс
1775165816610,400,1722,0,пресс
1775165816611,400,-1501,0,пресс
1775165816611,400,-2862,0,пресс
1775165816612,400,-1563,0,пресс
1775165816612,400,-1045,0,пресс
1775165816612,400,-517,0,пресс
1775165816613,400,1937,0,пресс
1775165816613,400,3620,0,пресс
1775165816614,400,3300,0,пресс
1775165816614,400,2815,0,пресс
1775165816615,400,2706,0,пресс
1775165816615,400,2587,0,пресс
1775165816616,400,2497,0,пресс
1775165816616,400,2064,0,пресс
1775165816634,400,2064,0,пресс
1775165816635,400,2064,0,пресс
1775165816636,400,2064,0,пресс
1775165816636,400,2064,0,пресс
1775165816637,400,2064,0,пресс
1775165816638,399,2064,0,пресс
1775165816639,399,2064,0,пресс
1775165816640,399,2064,0,пресс
1775165816641,399,2064,0,пресс
1775165816642,399,2064,0,пресс
1775165817120,399,1662,0,пресс
1775165817121,399,2235,0,пресс
1775165817122,399,2676,0,пресс
1775165817122,399,2269,0,пресс
1775165817123,399,2074,0,пресс
1775165817123,399,1092,0,пресс
1775165817124,399,-270,0,пресс
1775165817124,399,1219,0,пресс
1775165817125,399,3010,0,пресс
1775165817126,399,1950,0,пресс
1775165817126,399,1243,0,пресс
1775165817127,399,1952,0,пресс
1775165817127,399,1987,0,пресс
1775165817128,399,1509,0,пресс
1775165817128,399,1293,0,пресс
1775165817129,399,1281,0,пресс
1775165817129,399,455,0,пресс
1775165817130,399,-2178,0,пресс
1775165817130,399,-2701,0,пресс
1775165817131,399,1286,0,пресс
1775165817131,399,3221,0,пресс
1775165817132,399,1519,0,пресс
1775165817132,399,1583,0,пресс
1775165817133,399,2473,0,пресс
1775165817133,399,1875,0,пресс
1775165817134,399,1573,0,пресс
1775165817134,399,1900,0,пресс
1775165817135,399,1794,0,пресс
1775165817135,399,1424,0,пресс
1775165817136,399,1209,0,пресс
1775165817136,399,1310,0,пресс
1775165817137,399,1548,0,пресс
1775165817137,399,1471,0,пресс
1775165817138,399,1209,0,пресс
1775165817139,399,-579,0,пресс
1775165817140,399,-3883,0,пресс
1775165817141,399,-2207,0,пресс
1775165817142,399,2368,0,пресс
1775165817143,399,-733,0,пресс
1775165817143,399,-4284,0,пресс
1775165817144,399,1011,0,пресс
1775165817144,399,4457,0,пресс
1775165817145,399,1561,0,пресс
1775165817146,399,775,0,пресс
1775165817147,399,386,0,пресс
1775165817148,399,-3704,0,пресс
1775165817148,399,-3238,0,пресс
1775165817149,399,2693,0,пресс
1775165817150,399,3025,0,пресс
1775165817151,399,168,0,пресс
1775165817151,399,1605,0,пресс
1775165817152,399,2076,0,пресс
1775165817153,399,-981,0,пресс
1775165817154,399,-939,0,пресс
1775165817155,399,2413,0,пресс
1775165817156,399,2502,0,пресс
1775165817156,399,840,0,пресс
1775165817157,399,1370,0,пресс
1775165817158,399,1759,0,пресс
1775165817159,399,1144,0,пресс
1775165817159,399,1127,0,пресс
1775165817160,399,1335,0,пресс
1775165817161,399,1122,0,пресс
1775165817161,399,1001,0,пресс
1775165817162,399,1105,0,пресс
1775165817163,399,1164,0,пресс
1775165817164,399,1191,0,пресс
1775165817164,399,1206,0,пресс
1775165817165,399,1077,0,пресс
1775165817165,399,899,0,пресс
1775165817166,399,931,0,пресс
1775165817167,399,1013,0,пресс
1775165817168,399,931,0,пресс
1775165817644,399,931,0,пресс
1775165817645,399,931,0,пресс
1775165817645,399,931,0,пресс
1775165817646,398,931,0,пресс
1775165817646,398,931,0,пресс
1775165817647,399,931,0,пресс
1775165817647,398,931,0,пресс
1775165817648,398,931,0,пресс
1775165817649,398,931,0,пресс
1775165817650,398,931,0,пресс
1775165817707,398,835,0,пресс
1775165817707,398,795,0,пресс
1775165817708,398,755,0,пресс
1775165817709,398,721,0,пресс
1775165817710,398,713,0,пресс
1775165817711,398,587,0,пресс
1775165817712,398,-1397,0,пресс
1775165817713,398,-4651,0,пресс
1775165817713,398,-2812,0,пресс
1775165817714,398,1519,0,пресс
1775165817714,398,-446,0,пресс
1775165817715,398,-2606,0,пресс
1775165817715,398,-421,0,пресс
1775165817715,398,-1509,0,пресс
1775165817716,398,-3139,0,пресс
1775165817716,398,270,0,пресс
1775165817717,398,1747,0,пресс
1775165817717,398,-1105,0,пресс
1775165817718,398,-2215,0,пресс
1775165817718,398,-1994,0,пресс
1775165817719,398,-2904,0,пресс
1775165817719,398,-1677,0,пресс
1775165817719,398,-151,0,пресс
1775165817720,398,-3308,0,пресс
1775165817720,398,-5761,0,пресс
1775165817721,398,-3778,0,пресс
1775165817721,398,-1640,0,пресс
1775165817723,398,-924,0,пресс
1775165817724,398,-2267,0,пресс
1775165817724,398,-3949,0,пресс
1775165817725,398,-3015,0,пресс
1775165817725,398,-1345,0,пресс
1775165817726,398,914,0,пресс
1775165817726,398,3429,0,пресс
1775165817727,398,3129,0,пресс
1775165817727,398,2113,0,пресс
1775165817728,398,2453,0,пресс
1775165817728,398,2309,0,пресс
1775165817729,398,1932,0,пресс
1775165817729,398,2121,0,пресс
1775165817730,398,1677,0,пресс
1775165817730,398,-1402,0,пресс
1775165817731,398,-3697,0,пресс
1775165817731,398,-1248,0,пресс
1775165817732,398,-1476,0,пресс
1775165817732,398,-5124,0,пресс
1775165817733,398,-2869,0,пресс
1775165817733,398,2624,0,пресс
1775165817734,398,3796,0,пресс
1775165817734,398,2242,0,пресс
1775165817735,398,2126,0,пресс
1775165817735,398,2495,0,пресс
1775165817736,398,1761,0,пресс
1775165817736,398,-61,0,пресс
1775165817737,398,-3372,0,пресс
1775165817737,398,-5332,0,пресс
1775165817738,398,-4041,0,пресс
1775165817739,398,-3166,0,пресс
1775165817740,398,-3588,0,пресс
1775165817741,398,-3137,0,пресс
1775165817742,398,-2584,0,пресс
1775165817742,398,-2678,0,пресс
1775165817743,398,-2371,0,пресс
1775165817743,398,-2022,0,пресс
1775165817744,398,-2381,0,пресс
1775165817744,398,-1756,0,пресс
1775165817745,398,1553,0,пресс
1775165817745,398,4383,0,пресс
1775165817745,398,2834,0,пресс
1775165817746,398,-39,0,пресс
1775165817746,398,-944,0,пресс
1775165817747,398,-594,0,пресс
1775165817747,398,500,0,пресс
1775165818246,398,-398,0,пресс
1775165818247,398,-2532,0,пресс
1775165818248,398,346,0,пресс
1775165818249,398,4435,0,пресс
1775165818250,398,3288,0,пресс
1775165818251,398,1699,0,пресс
1775165818252,398,2497,0,пресс
1775165818253,398,2222,0,пресс
1775165818253,398,237,0,пресс
1775165818254,398,-639,0,пресс
1775165818255,398,1253,0,пресс
1775165818256,398,2849,0,пресс
1775165818257,398,1984,0,пресс
1775165818257,398,1424,0,пресс
1775165818258,398,1883,0,пресс
1775165818259,398,1744,0,пресс
1775165818259,398,1400,0,пресс
1775165818260,398,1442,0,пресс
1775165818260,398,1449,0,пресс
1775165818261,398,1318,0,пресс
1775165818261,398,1268,0,пресс
1775165818262,398,1199,0,пресс
1775165818262,398,1090,0,пресс
1775165818263,398,1055,0,пресс
1775165818263,398,941,0,пресс
1775165818264,398,545,0,пресс
1775165818264,398,-768,0,пресс
1775165818265,398,-2592,0,пресс
1775165818265,398,-2111,0,пресс
1775165818266,398,946,0,пресс
1775165818266,398,2284,0,пресс
1775165818267,398,691,0,пресс
1775165818267,398,-1291,0,пресс
1775165818267,398,-1794,0,пресс
1775165818268,398,-446,0,пресс
1775165818268,398,312,0,пресс
1775165818269,398,56,0,пресс
1775165818269,398,232,0,пресс
1775165818270,398,294,0,пресс
1775165818270,398,656,0,пресс
1775165818270,398,1335,0,пресс
1775165818271,398,1125,0,пресс
1775165818272,398,706,0,пресс
1775165818272,398,961,0,пресс
1775165818273,398,1043,0,пресс
1775165818273,398,180,0,пресс
1775165818274,398,-2242,0,пресс
1775165818274,398,-5298,0,пресс
1775165818275,398,-5786,0,пресс
1775165818275,398,-3600,0,пресс
1775165818276,398,-389,0,пресс
1775165818276,398,2487,0,пресс
1775165818277,398,2463,0,пресс
1775165818277,398,1043,0,пресс
1775165818277,398,597,0,пресс
1775165818278,398,567,0,пресс
1775165818279,398,1226,0,пресс
1775165818279,398,1801,0,пресс
1775165818280,398,1360,0,пресс
1775165818280,398,1100,0,пресс
1775165818281,398,1236,0,пресс
1775165818281,398,1072,0,пресс
1775165818282,398,882,0,пресс
1775165818282,398,-91,0,пресс
1775165818283,398,-1303,0,пресс
1775165818283,398,4,0,пресс
1775165818283,398,1672,0,пресс
1775165818284,398,934,0,пресс
1775165818284,398,227,0,пресс
1775165818285,398,431,0,пресс
1775165818285,398,465,0,пресс
1775165818286,398,560,0,пресс
1775165818286,398,639,0,пресс
1775165818654,398,639,0,пресс
1775165818655,398,639,0,пресс
1775165818656,395,639,0,пресс
1775165818657,398,639,0,пресс
1775165818657,398,639,0,пресс
1775165818658,397,639,0,пресс
1775165818658,397,639,0,пресс
1775165818659,403,639,0,пресс
1775165818660,410,639,0,пресс
1775165818661,397,639,0,пресс
1775165818785,397,535,0,пресс
1775165818786,397,500,0,пресс
1775165818787,397,505,0,пресс
1775165818788,397,475,0,пресс
1775165818788,397,455,0,пресс
1775165818789,397,406,0,пресс
1775165818789,397,361,0,пресс
1775165818790,397,376,0,пресс
1775165818790,397,354,0,пресс
1775165818791,397,327,0,пресс
1775165818791,397,312,0,пресс
1775165818791,397,255,0,пресс
1775165818792,397,227,0,пресс
1775165818792,397,185,0,пресс
1775165818793,397,86,0,пресс
1775165818793,397,0,0,пресс
1775165818794,397,-89,0,пресс
1775165818794,397,-235,0,пресс
1775165818795,397,-453,0,пресс
1775165818795,397,-498,0,пресс
1775165818796,397,-178,0,пресс
1775165818796,397,185,0,пресс
1775165818797,397,354,0,пресс
1775165818797,397,401,0,пресс
1775165818797,397,337,0,пресс
1775165818798,397,252,0,пресс
1775165818798,397,190,0,пресс
1775165818799,397,99,0,пресс
1775165818799,397,54,0,пресс
1775165818799,397,39,0,пресс
1775165818800,397,-29,0,пресс
1775165818800,397,-81,0,пресс
1775165818801,397,-52,0,пресс
1775165818801,397,-56,0,пресс
1775165818802,397,-96,0,пресс
1775165818802,397,-42,0,пресс
1775165818802,397,-302,0,пресс
1775165818803,397,-2562,0,пресс
1775165818803,397,-5139,0,пресс
1775165818804,397,-2473,0,пресс
1775165818804,397,778,0,пресс
1775165818805,397,-2371,0,пресс
1775165818806,397,-2931,0,пресс
1775165818807,397,1667,0,пресс
1775165818807,397,1452,0,пресс
1775165818808,397,-805,0,пресс
1775165818808,397,272,0,пресс
1775165818809,397,706,0,пресс
1775165818809,397,-260,0,пресс
1775165818810,397,-262,0,пресс
1775165818810,397,138,0,пресс
1775165818811,397,116,0,пресс
1775165818811,397,-12,0,пресс
1775165818812,397,-44,0,пресс
1775165818812,397,-52,0,пресс
1775165818812,397,-104,0,пресс
1775165818813,397,-183,0,пресс
1775165818813,397,-337,0,пресс
1775165818814,397,-443,0,пресс
1775165818814,397,-475,0,пресс
1775165818815,397,-862,0,пресс
1775165818815,397,-1159,0,пресс
1775165818815,397,-480,0,пресс
1775165818816,397,7,0,пресс
1775165818816,397,-369,0,пресс
1775165818817,397,-116,0,пресс
1775165818817,397,634,0,пресс
1775165818818,397,614,0,пресс
1775165818818,397,118,0,пресс
1775165818819,397,-64,0,пресс
1775165818819,397,111,0,пресс
1775165818819,397,123,0,пресс
1775165818820,397,-636,0,пресс
1775165819416,397,-2735,0,пресс
1775165819416,397,-3984,0,пресс
1775165819417,397,-1511,0,пресс
1775165819418,397,983,0,пресс
1775165819418,397,292,0,пресс
1775165819419,397,-451,0,пресс
1775165819419,397,-267,0,пресс
1775165819420,397,-721,0,пресс
1775165819420,397,-812,0,пресс
1775165819421,397,-376,0,пресс
1775165819422,397,-567,0,пресс
1775165819423,397,-555,0,пресс
1775165819423,397,19,0,пресс
1775165819424,397,190,0,пресс
1775165819424,397,-250,0,пресс
1775165819425,397,-1553,0,пресс
1775165819425,397,-3097,0,пресс
1775165819425,397,-2740,0,пресс
1775165819426,397,-1883,0,пресс
1775165819426,397,-2170,0,пресс
1775165819427,397,-892,0,пресс
1775165819427,397,835,0,пресс
1775165819428,397,-151,0,пресс
1775165819428,397,-2505,0,пресс
1775165819428,397,-3335,0,пресс
1775165819429,397,-2108,0,пресс
1775165819429,397,-2299,0,пресс
1775165819430,397,-3855,0,пресс
1775165819430,397,-3270,0,пресс
1775165819431,397,-2366,0,пресс
1775165819431,397,-2847,0,пресс
1775165819432,397,-2800,0,пресс
1775165819432,397,-2232,0,пресс
1775165819433,397,-2292,0,пресс
1775165819433,397,-2386,0,пресс
1775165819434,397,-2096,0,пресс
1775165819434,397,-2009,0,пресс
1775165819434,397,-2034,0,пресс
1775165819435,397,-1873,0,пресс
1775165819435,397,-1764,0,пресс
1775165819436,397,-1794,0,пресс
1775165819436,397,-1808,0,пресс
1775165819437,397,-1682,0,пресс
1775165819437,397,-1479,0,пресс
1775165819438,397,-1452,0,пресс
1775165819439,397,-1531,0,пресс
1775165819439,397,-1484,0,пресс
1775165819440,397,-1429,0,пресс
1775165819440,397,-1407,0,пресс
1775165819441,397,-1199,0,пресс
1775165819441,397,-857,0,пресс
1775165819442,397,-911,0,пресс
1775165819442,397,-1432,0,пресс
1775165819442,397,-1652,0,пресс
1775165819443,397,-1353,0,пресс
1775165819443,397,-1182,0,пресс
1775165819444,397,-1216,0,пресс
1775165819444,397,-1087,0,пресс
1775165819445,397,-1015,0,пресс
1775165819445,397,-1172,0,пресс
1775165819446,397,-1182,0,пресс
1775165819446,397,-981,0,пресс
1775165819446,397,-988,0,пресс
1775165819447,397,-1134,0,пресс
1775165819447,397,-1048,0,пресс
1775165819448,397,-830,0,пресс
1775165819448,397,-609,0,пресс
1775165819449,397,-589,0,пресс
1775165819449,397,-934,0,пресс
1775165819451,397,-1125,0,пресс
1775165819451,397,-986,0,пресс
1775165819452,397,-973,0,пресс
1775165819452,397,-1011,0,пресс
1775165819665,396,-1011,0,пресс
1775165819667,396,-1011,0,пресс
1775165819667,396,-1011,0,пресс
1775165819668,396,-1011,0,пресс
1775165819669,396,-1011,0,пресс
1775165819670,394,-1011,0,пресс
1775165819671,389,-1011,0,пресс
1775165819671,391,-1011,0,пресс
1775165819672,395,-1011,0,пресс
1775165819672,395,-1011,0,пресс
1775165819955,395,-939,0,пресс
1775165819956,395,-884,0,пресс
1775165819957,395,-802,0,пресс
1775165819958,395,-755,0,пресс
1775165819959,395,-775,0,пресс
1775165819960,395,-701,0,пресс
1775165819961,395,-701,0,пресс
1775165819962,395,-778,0,пресс
1775165819963,395,-726,0,пресс
1775165819963,395,-790,0,пресс
1775165819963,395,-961,0,пресс
1775165819964,395,-936,0,пресс
1775165819964,395,-854,0,пресс
1775165819965,395,-902,0,пресс
1775165819965,395,-976,0,пресс
1775165819966,395,-954,0,пресс
1775165819966,395,-889,0,пресс
1775165819967,395,-874,0,пресс
1775165819967,395,-931,0,пресс
1775165819967,395,-934,0,пресс
1775165819968,395,-869,0,пресс
1775165819968,395,-857,0,пресс
1775165819969,395,-822,0,пресс
1775165819969,395,-770,0,пресс
1775165819970,395,-869,0,пресс
1775165819970,395,-924,0,пресс
1775165819971,395,-788,0,пресс
1775165819972,395,-753,0,пресс
1775165819972,395,-889,0,пресс
1775165819973,395,-906,0,пресс
1775165819973,395,-800,0,пресс
1775165819974,395,-785,0,пресс
1775165819974,395,-820,0,пресс
1775165819975,395,-830,0,пресс
1775165819975,395,-790,0,пресс
1775165819976,395,-785,0,пресс
1775165819976,395,-926,0,пресс
1775165819977,395,-951,0,пресс
1775165819977,395,-817,0,пресс
1775165819978,395,-797,0,пресс
1775165819978,395,-805,0,пресс
1775165819979,395,-763,0,пресс
1775165819979,395,-817,0,пресс
1775165819979,395,-909,0,пресс
1775165819980,395,-879,0,пресс
1775165819980,395,-795,0,пресс
1775165819981,395,-832,0,пресс
1775165819981,395,-926,0,пресс
1775165819982,395,-926,0,пресс
1775165819982,395,-919,0,пресс
1775165819982,395,-944,0,пресс
1775165819983,395,-958,0,пресс
1775165819983,395,-981,0,пресс
1775165819984,395,-973,0,пресс
1775165819984,395,-929,0,пресс
1775165819985,395,-919,0,пресс
1775165819985,395,-963,0,пресс
1775165819985,395,-929,0,пресс
1775165819986,395,-619,0,пресс
1775165819986,395,-252,0,пресс
1775165819987,395,-361,0,пресс
1775165819988,395,-783,0,пресс
1775165819988,395,-894,0,пресс
1775165819989,395,-778,0,пресс
1775165819989,395,-790,0,пресс
1775165819990,395,-825,0,пресс
1775165819990,395,-758,0,пресс
1775165819990,395,-723,0,пресс
1775165819991,395,-733,0,пресс
1775165819991,395,-708,0,пресс
1775165819992,395,-683,0,пресс
1775165819992,395,-678,0,пресс
1775165819993,395,-651,0,пресс
1775165820496,395,-644,0,пресс
1775165820496,395,-686,0,пресс
1775165820497,395,-676,0,пресс
1775165820498,395,-612,0,пресс
1775165820499,395,-614,0,пресс
1775165820500,395,-607,0,пресс
1775165820500,395,-520,0,пресс
1775165820501,395,-473,0,пресс
1775165820502,395,-475,0,пресс
1775165820502,395,-436,0,пресс
1775165820503,395,19,0,пресс
1775165820503,395,1826,0,пресс
1775165820504,395,3563,0,пресс
1775165820505,395,2715,0,пресс
1775165820506,395,2185,0,пресс
1775165820506,395,3536,0,пресс
1775165820507,395,3218,0,пресс
1775165820508,395,2079,0,пресс
1775165820508,395,2277,0,пресс
1775165820509,395,1838,0,пресс
1775165820511,395,701,0,пресс
1775165820512,395,1234,0,пресс
1775165820512,395,1186,0,пресс
1775165820515,395,-1305,0,пресс
1775165820515,395,-646,0,пресс
1775165820515,395,3194,0,пресс
1775165820516,395,3330,0,пресс
1775165820516,395,1159,0,пресс
1775165820517,395,889,0,пресс
1775165820517,395,480,0,пресс
1775165820518,395,-1457,0,пресс
1775165820518,395,-307,0,пресс
1775165820520,395,3404,0,пресс
1775165820521,395,2869,0,пресс
1775165820521,395,626,0,пресс
1775165820522,395,1070,0,пресс
1775165820522,395,1434,0,пресс
1775165820523,395,1132,0,пресс
1775165820523,395,1618,0,пресс
1775165820524,395,1776,0,пресс
1775165820524,395,1353,0,пресс
1775165820525,395,1283,0,пресс
1775165820525,395,1152,0,пресс
1775165820526,395,547,0,пресс
1775165820526,395,490,0,пресс
1775165820527,395,1184,0,пресс
1775165820527,395,1241,0,пресс
1775165820528,395,1003,0,пресс
1775165820528,395,1159,0,пресс
1775165820529,395,1013,0,пресс
1775165820529,395,755,0,пресс
1775165820530,395,797,0,пресс
1775165820530,395,748,0,пресс
1775165820531,395,574,0,пресс
1775165820531,395,555,0,пресс
1775165820532,395,542,0,пресс
1775165820532,395,381,0,пресс
1775165820532,395,-61,0,пресс
1775165820533,395,-849,0,пресс
1775165820533,395,-1372,0,пресс
1775165820534,395,-1077,0,пресс
1775165820535,395,-711,0,пресс
1775165820535,395,-1546,0,пресс
1775165820536,395,-3117,0,пресс
1775165820537,395,-3647,0,пресс
1775165820537,395,-2881,0,пресс
1775165820538,395,-1950,0,пресс
1775165820538,395,-946,0,пресс
1775165820539,395,240,0,пресс
1775165820539,395,743,0,пресс
1775165820540,395,-56,0,пресс
1775165820540,395,-1350,0,пресс
1775165820541,395,-1015,0,пресс
1775165820675,395,-1015,0,пресс
1775165820676,402,-1015,0,пресс
1775165820677,439,-1015,0,пресс
1775165820677,401,-1015,0,пресс
1775165820678,398,-1015,0,пресс
1775165820679,391,-1015,0,пресс
1775165820680,384,-1015,0,пресс
1775165820680,396,-1015,0,пресс
1775165820680,401,-1015,0,пресс
1775165820681,392,-1015,0,пресс
1775165821035,392,284,0,пресс
1775165821036,392,-324,0,пресс
1775165821037,392,-1618,0,пресс
1775165821037,392,-2046,0,пресс
1775165821038,392,-2636,0,пресс
1775165821038,392,-2725,0,пресс
1775165821039,392,-1747,0,пресс
1775165821039,392,-337,0,пресс
1775165821040,392,416,0,пресс
1775165821041,392,-849,0,пресс
1775165821042,392,-2393,0,пресс
1775165821042,392,-2056,0,пресс
1775165821043,392,-1459,0,пресс
1775165821043,392,-1687,0,пресс
1775165821044,392,-1935,0,пресс
1775165821044,392,-1761,0,пресс
1775165821045,392,-1422,0,пресс
1775165821045,392,-1362,0,пресс
1775165821046,392,-1437,0,пресс
1775165821046,392,-1291,0,пресс
1775165821046,392,-1028,0,пресс
1775165821047,392,-996,0,пресс
1775165821047,392,-1117,0,пресс
1775165821048,392,-1107,0,пресс
1775165821048,392,-1018,0,пресс
1775165821049,392,-1058,0,пресс
1775165821049,392,-1142,0,пресс
1775165821050,392,-1147,0,пресс
1775165821050,392,-1087,0,пресс
1775165821051,392,-961,0,пресс
1775165821051,392,-897,0,пресс
1775165821051,392,-983,0,пресс
1775165821052,392,-973,0,пресс
1775165821052,392,-795,0,пресс
1775165821053,392,-792,0,пресс
1775165821053,392,-1011,0,пресс
1775165821054,392,-1065,0,пресс
1775165821055,392,-879,0,пресс
1775165821055,392,-763,0,пресс
1775165821056,392,-738,0,пресс
1775165821056,392,-403,0,пресс
1775165821057,392,327,0,пресс
1775165821057,392,517,0,пресс
1775165821058,392,-522,0,пресс
1775165821058,392,-1343,0,пресс
1775165821059,392,-986,0,пресс
1775165821059,392,-552,0,пресс
1775165821060,392,-550,0,пресс
1775165821060,392,-820,0,пресс
1775165821061,392,-1092,0,пресс
1775165821061,392,-1139,0,пресс
1775165821061,392,-847,0,пресс
1775165821062,392,-423,0,пресс
1775165821062,392,-493,0,пресс
1775165821063,392,-740,0,пресс
1775165821063,392,-708,0,пресс
1775165821064,392,-626,0,пресс
1775165821064,392,-515,0,пресс
1775165821065,392,-550,0,пресс
1775165821065,392,-753,0,пресс
1775165821066,392,-604,0,пресс
1775165821066,392,-406,0,пресс
1775165821066,392,-646,0,пресс
1775165821067,392,-745,0,пресс
1775165821067,392,-602,0,пресс
1775165821068,392,-639,0,пресс
1775165821068,392,-200,0,пресс
1775165821069,392,666,0,пресс
1775165821069,392,106,0,пресс
1775165821069,392,-1179,0,пресс
1775165821070,392,-939,0,пресс
1775165821070,392,-272,0,пресс
1775165821071,392,-547,0,пресс
1775165821620,392,-854,0,пресс
1775165821621,392,-589,0,пресс
1775165821622,392,-587,0,пресс
1775165821622,392,-909,0,пресс
1775165821623,392,-765,0,пресс
1775165821623,392,-359,0,пресс
1775165821624,392,-178,0,пресс
1775165821625,392,-267,0,пресс
1775165821625,392,-532,0,пресс
1775165821627,392,-805,0,пресс
1775165821627,392,-852,0,пресс
1775165821627,392,-753,0,пресс
1775165821628,392,-738,0,пресс
1775165821628,392,-740,0,пресс
1775165821629,392,-626,0,пресс
1775165821629,392,-542,0,пресс
1775165821630,392,-686,0,пресс
1775165821630,392,-805,0,пресс
1775165821630,392,-716,0,пресс
1775165821631,392,-626,0,пресс
1775165821631,392,-706,0,пресс
1775165821632,392,-755,0,пресс
1775165821632,392,-512,0,пресс
1775165821633,392,-433,0,пресс
1775165821633,392,-735,0,пресс
1775165821634,392,-740,0,пресс
1775165821634,392,-470,0,пресс
1775165821635,392,-455,0,пресс
1775165821635,392,-460,0,пресс
1775165821636,392,-371,0,пресс
1775165821636,392,-460,0,пресс
1775165821637,392,-540,0,пресс
1775165821638,392,-443,0,пресс
1775165821638,392,-351,0,пресс
1775165821639,392,-304,0,пресс
1775165821639,392,-272,0,пресс
1775165821640,392,-304,0,пресс
1775165821640,392,-322,0,пресс
1775165821641,392,-317,0,пресс
1775165821642,392,-418,0,пресс
1775165821642,392,-527,0,пресс
1775165821643,392,-545,0,пресс
1775165821643,392,-547,0,пресс
1775165821643,392,-507,0,пресс
1775165821644,392,-421,0,пресс
1775165821644,392,-386,0,пресс
1775165821645,392,-542,0,пресс
1775165821645,392,-795,0,пресс
1775165821646,392,-735,0,пресс
1775165821646,392,-517,0,пресс
1775165821647,392,-651,0,пресс
1775165821648,392,-825,0,пресс
1775165821648,392,-698,0,пресс
1775165821649,392,-661,0,пресс
1775165821649,392,-755,0,пресс
1775165821649,392,-678,0,пресс
1775165821650,392,-584,0,пресс
1775165821650,392,-644,0,пресс
1775165821651,392,-681,0,пресс
1775165821651,392,-567,0,пресс
1775165821652,392,-475,0,пресс
1775165821652,392,-567,0,пресс
1775165821652,392,-599,0,пресс
1775165821653,392,-473,0,пресс
1775165821653,392,-505,0,пресс
1775165821654,392,-589,0,пресс
1775165821654,392,-515,0,пресс
1775165821655,392,-485,0,пресс
1775165821655,392,-507,0,пресс
1775165821656,392,-475,0,пресс
1775165821656,392,-436,0,пресс
1775165821656,392,-525,0,пресс
1775165821657,392,-666,0,пресс
1775165821682,393,-666,0,пресс
1775165821683,394,-666,0,пресс
1775165821683,396,-666,0,пресс
1775165821684,395,-666,0,пресс
1775165821684,394,-666,0,пресс
1775165821685,394,-666,0,пресс
1775165821685,394,-666,0,пресс
1775165821686,393,-666,0,пресс
1775165821686,393,-666,0,пресс
1775165821687,392,-666,0,пресс
1775165822250,392,-609,0,пресс
1775165822251,392,-530,0,пресс
1775165822252,392,-617,0,пресс
1775165822252,392,-669,0,пресс
1775165822253,392,-609,0,пресс
1775165822254,392,-577,0,пресс
1775165822254,392,-599,0,пресс
1775165822255,392,-609,0,пресс
1775165822256,392,-582,0,пресс
1775165822256,392,-495,0,пресс
1775165822257,392,-441,0,пресс
1775165822258,392,-527,0,пресс
1775165822258,392,-552,0,пресс
1775165822259,392,-428,0,пресс
1775165822259,392,-403,0,пресс
1775165822260,392,-495,0,пресс
1775165822260,392,-525,0,пресс
1775165822260,392,-505,0,пресс
1775165822261,392,-411,0,пресс
1775165822261,392,-203,0,пресс
1775165822262,392,-351,0,пресс
1775165822262,392,-832,0,пресс
1775165822263,392,-693,0,пресс
1775165822263,392,-61,0,пресс
1775165822264,392,193,0,пресс
1775165822264,392,-89,0,пресс
1775165822264,392,-443,0,пресс
1775165822265,392,287,0,пресс
1775165822265,392,2373,0,пресс
1775165822266,392,2943,0,пресс
1775165822266,392,1110,0,пресс
1775165822267,392,475,0,пресс
1775165822267,392,1836,0,пресс
1775165822268,392,2872,0,пресс
1775165822268,392,2713,0,пресс
1775165822269,392,2049,0,пресс
1775165822269,392,835,0,пресс
1775165822270,392,626,0,пресс
1775165822270,392,2557,0,пресс
1775165822271,392,2981,0,пресс
1775165822272,392,1828,0,пресс
1775165822273,392,1940,0,пресс
1775165822273,392,2150,0,пресс
1775165822274,392,1600,0,пресс
1775165822275,392,1350,0,пресс
1775165822275,392,1412,0,пресс
1775165822276,392,1206,0,пресс
1775165822276,392,991,0,пресс
1775165822277,392,1065,0,пресс
1775165822277,392,1033,0,пресс
1775165822278,392,748,0,пресс
1775165822278,392,656,0,пресс
1775165822279,392,698,0,пресс
1775165822279,392,569,0,пресс
1775165822280,392,431,0,пресс
1775165822280,392,61,0,пресс
1775165822281,392,-708,0,пресс
1775165822281,392,-1402,0,пресс
1775165822282,392,-1008,0,пресс
1775165822282,392,257,0,пресс
1775165822282,392,255,0,пресс
1775165822283,392,-1206,0,пресс
1775165822283,392,-2183,0,пресс
1775165822284,392,-1286,0,пресс
1775165822284,392,61,0,пресс
1775165822285,392,-156,0,пресс
1775165822285,392,-646,0,пресс
1775165822285,392,-778,0,пресс
1775165822286,392,-1008,0,пресс
1775165822286,392,-671,0,пресс
1775165822287,392,-924,0,пресс
1775165822287,392,-2185,0,пресс
1775165822288,392,-2359,0,пресс
1775165822704,395,-2359,0,пресс
1775165822705,393,-2359,0,пресс
1775165822705,392,-2359,0,пресс
1775165822706,393,-2359,0,пресс
1775165822706,392,-2359,0,пресс
1775165822707,390,-2359,0,пресс
1775165822707,394,-2359,0,пресс
1775165822708,389,-2359,0,пресс
1775165822708,389,-2359,0,пресс
1775165822709,388,-2359,0,пресс
1775165822745,388,-991,0,пресс
1775165822746,388,327,0,пресс
1775165822747,388,294,0,пресс
1775165822748,388,-255,0,пресс
1775165822750,388,-173,0,пресс
1775165822751,388,-116,0,пресс
1775165822752,388,-458,0,пресс
1775165822752,388,-307,0,пресс
1775165822753,388,37,0,пресс
1775165822754,388,-889,0,пресс
1775165822754,388,-2150,0,пресс
1775165822756,388,-2039,0,пресс
1775165822757,388,-1209,0,пресс
1775165822757,388,-639,0,пресс
1775165822758,388,-825,0,пресс
1775165822758,388,-1390,0,пресс
1775165822759,388,-718,0,пресс
1775165822759,388,465,0,пресс
1775165822760,388,-22,0,пресс
1775165822761,388,-1303,0,пресс
1775165822762,388,-1519,0,пресс
1775165822762,388,-634,0,пресс
1775165822763,388,-304,0,пресс
1775165822763,388,-1333,0,пресс
1775165822764,388,-1687,0,пресс
1775165822765,388,-1015,0,пресс
1775165822765,388,-1065,0,пресс
1775165822766,388,-1372,0,пресс
1775165822766,388,-1072,0,пресс
1775165822767,388,-859,0,пресс
1775165822767,388,-971,0,пресс
1775165822768,388,-931,0,пресс
1775165822768,388,-837,0,пресс
1775165822768,388,-802,0,пресс
1775165822769,388,-683,0,пресс
1775165822769,388,-728,0,пресс
1775165822770,388,-837,0,пресс
1775165822770,388,-664,0,пресс
1775165822771,388,-602,0,пресс
1775165822772,388,-812,0,пресс
1775165822772,388,-723,0,пресс
1775165822773,388,-436,0,пресс
1775165822773,388,-463,0,пресс
1775165822773,388,-592,0,пресс
1775165822774,388,-354,0,пресс
1775165822774,388,-54,0,пресс
1775165822775,388,-374,0,пресс
1775165822775,388,-688,0,пресс
1775165822776,388,-337,0,пресс
1775165822776,388,-289,0,пресс
1775165822776,388,-644,0,пресс
1775165822777,388,-503,0,пресс
1775165822777,388,-284,0,пресс
1775165822778,388,-441,0,пресс
1775165822778,388,-569,0,пресс
1775165822779,388,-475,0,пресс
1775165822779,388,-292,0,пресс
1775165822779,388,-270,0,пресс
1775165822780,388,-272,0,пресс
1775165822780,388,-61,0,пресс
1775165822781,388,-324,0,пресс
1775165822781,388,-792,0,пресс
1775165822782,388,-426,0,пресс
1775165822782,388,-32,0,пресс
1775165822783,388,-307,0,пресс
1775165822783,388,-465,0,пресс
1775165822783,388,-213,0,пресс
1775165822784,388,52,0,пресс
1775165822784,388,74,0,пресс
1775165822785,388,-242,0,пресс
1775165822785,388,-498,0,пресс
1775165822786,388,-289,0,пресс
1775165822786,388,-84,0,пресс
1775165823330,388,-227,0,пресс
1775165823331,388,-307,0,пресс
1775165823332,388,-252,0,пресс
1775165823333,388,-299,0,пресс
1775165823334,388,-255,0,пресс
1775165823335,388,64,0,пресс
1775165823335,388,277,0,пресс
1775165823336,388,396,0,пресс
1775165823336,388,639,0,пресс
1775165823337,388,661,0,пресс
1775165823338,388,750,0,пресс
1775165823339,388,921,0,пресс
1775165823339,388,721,0,пресс
1775165823339,388,448,0,пресс
1775165823340,388,381,0,пресс
1775165823340,388,210,0,пресс
1775165823341,388,9,0,пресс
1775165823341,388,223,0,пресс
1775165823342,388,-34,0,пресс
1775165823342,388,-1087,0,пресс
1775165823343,388,-1429,0,пресс
1775165823343,388,-892,0,пресс
1775165823343,388,-646,0,пресс
1775165823344,388,-686,0,пресс
1775165823344,388,-626,0,пресс
1775165823345,388,-763,0,пресс
1775165823345,388,-874,0,пресс
1775165823346,388,-641,0,пресс
1775165823346,388,-530,0,пресс
1775165823347,388,-678,0,пресс
1775165823347,388,-659,0,пресс
1775165823348,388,-517,0,пресс
1775165823348,388,-550,0,пресс
1775165823348,388,-589,0,пресс
1775165823349,388,-522,0,пресс
1775165823349,388,-579,0,пресс
1775165823350,388,-708,0,пресс
1775165823350,388,-726,0,пресс
1775165823351,388,-634,0,пресс
1775165823351,388,-322,0,пресс
1775165823351,388,148,0,пресс
1775165823352,388,-17,0,пресс
1775165823352,388,-267,0,пресс
1775165823353,388,525,0,пресс
1775165823353,388,688,0,пресс
1775165823354,388,-14,0,пресс
1775165823355,388,949,0,пресс
1775165823355,388,2604,0,пресс
1775165823356,388,1893,0,пресс
1775165823356,388,708,0,пресс
1775165823356,388,1771,0,пресс
1775165823357,388,2178,0,пресс
1775165823357,388,436,0,пресс
1775165823358,388,-69,0,пресс
1775165823358,388,897,0,пресс
1775165823359,388,433,0,пресс
1775165823359,388,-505,0,пресс
1775165823360,388,-428,0,пресс
1775165823360,388,609,0,пресс
1775165823360,388,2212,0,пресс
1775165823361,388,2311,0,пресс
1775165823362,388,1452,0,пресс
1775165823362,388,1085,0,пресс
1775165823363,388,294,0,пресс
1775165823363,388,-745,0,пресс
1775165823364,388,-104,0,пресс
1775165823364,388,1947,0,пресс
1775165823364,388,2502,0,пресс
1775165823365,388,1848,0,пресс
1775165823365,388,1851,0,пресс
1775165823366,388,820,0,пресс
1775165823366,388,-1248,0,пресс
1775165823367,388,27,0,пресс
1775165823719,388,27,0,пресс
1775165823720,387,27,0,пресс
1775165823721,386,27,0,пресс
1775165823721,386,27,0,пресс
1775165823722,387,27,0,пресс
1775165823722,438,27,0,пресс
1775165823723,415,27,0,пресс
1775165823724,360,27,0,пресс
1775165823724,389,27,0,пресс
1775165823726,392,27,0,пресс
1775165823726,383,27,0,пресс
1775165823871,383,2842,0,пресс
1775165823871,383,2106,0,пресс
1775165823872,383,919,0,пресс
1775165823873,383,1694,0,пресс
1775165823874,383,1751,0,пресс
1775165823875,383,1095,0,пресс
1775165823876,383,1214,0,пресс
1775165823876,383,1501,0,пресс
1775165823876,383,1338,0,пресс
1775165823877,383,1288,0,пресс
1775165823877,383,1504,0,пресс
1775165823878,383,1610,0,пресс
1775165823878,383,1623,0,пресс
1775165823879,383,1645,0,пресс
1775165823879,383,1615,0,пресс
1775165823880,383,1605,0,пресс
1775165823880,383,1573,0,пресс
1775165823880,383,1422,0,пресс
1775165823881,383,1367,0,пресс
1775165823881,383,1429,0,пресс
1775165823882,383,1325,0,пресс
1775165823882,383,1120,0,пресс
1775165823883,383,1025,0,пресс
1775165823883,383,892,0,пресс
1775165823884,383,664,0,пресс
1775165823884,383,572,0,пресс
1775165823884,383,488,0,пресс
1775165823885,383,237,0,пресс
1775165823885,383,121,0,пресс
1775165823886,383,210,0,пресс
1775165823886,383,14,0,пресс
1775165823887,383,-1707,0,пресс
1775165823887,383,-3920,0,пресс
1775165823888,383,-3907,0,пресс
1775165823889,383,-3330,0,пресс
1775165823889,383,-3816,0,пресс
1775165823889,383,-3660,0,пресс
1775165823890,383,-2594,0,пресс
1775165823891,383,-557,0,пресс
1775165823892,383,934,0,пресс
1775165823893,383,-220,0,пресс
1775165823893,383,-1459,0,пресс
1775165823894,383,-1590,0,пресс
1775165823895,383,-1548,0,пресс
1775165823895,383,-1870,0,пресс
1775165823896,383,-2943,0,пресс
1775165823897,383,-2948,0,пресс
1775165823898,383,-2252,0,пресс
1775165823898,383,-2368,0,пресс
1775165823899,383,-2339,0,пресс
1775165823900,383,-1930,0,пресс
1775165823901,383,-1801,0,пресс
1775165823901,383,-1756,0,пресс
1775165823902,383,-1590,0,пресс
1775165823903,383,-1273,0,пресс
1775165823904,383,-1169,0,пресс
1775165823904,383,-1573,0,пресс
1775165823904,383,-1595,0,пресс
1775165823905,383,-1281,0,пресс
1775165823906,383,-1362,0,пресс
1775165823906,383,-1353,0,пресс
1775165823907,383,-1134,0,пресс
1775165823907,383,-1144,0,пресс
1775165823908,383,-1184,0,пресс
1775165823908,383,-1092,0,пресс
1775165823909,383,-854,0,пресс
1775165823909,383,-17,0,пресс
1775165823910,383,148,0,пресс
1775165823910,383,-1206,0,пресс
1775165823910,383,-1533,0,пресс
1775165823911,383,-686,0,пресс
1775165823911,383,-748,0,пресс
1775165823912,383,-1015,0,пресс
1775165824411,383,-768,0,пресс
1775165824412,383,-735,0,пресс
1775165824413,383,-894,0,пресс
1775165824414,383,-909,0,пресс
1775165824415,383,-778,0,пресс
1775165824415,383,-629,0,пресс
1775165824416,383,-770,0,пресс
1775165824417,383,-899,0,пресс
1775165824418,383,-532,0,пресс
1775165824418,383,-81,0,пресс
1775165824419,383,-235,0,пресс
1775165824419,383,-758,0,пресс
1775165824420,383,-874,0,пресс
1775165824421,383,-619,0,пресс
1775165824422,383,-376,0,пресс
1775165824423,383,-356,0,пресс
1775165824424,383,-731,0,пресс
1775165824425,383,-577,0,пресс
1775165824425,383,659,0,пресс
1775165824426,383,924,0,пресс
1775165824427,383,230,0,пресс
1775165824427,383,245,0,пресс
1775165824428,383,-495,0,пресс
1775165824429,383,-1025,0,пресс
1775165824430,383,351,0,пресс
1775165824430,383,1082,0,пресс
1775165824430,383,540,0,пресс
1775165824431,383,674,0,пресс
1775165824432,383,993,0,пресс
1775165824432,383,671,0,пресс
1775165824433,383,542,0,пресс
1775165824433,383,555,0,пресс
1775165824433,383,468,0,пресс
1775165824434,383,626,0,пресс
1775165824434,383,716,0,пресс
1775165824435,383,609,0,пресс
1775165824435,383,676,0,пресс
1775165824436,383,602,0,пресс
1775165824436,383,-403,0,пресс
1775165824437,383,-1694,0,пресс
1775165824437,383,-1479,0,пресс
1775165824438,383,-371,0,пресс
1775165824438,383,-366,0,пресс
1775165824439,383,-319,0,пресс
1775165824439,383,698,0,пресс
1775165824440,383,785,0,пресс
1775165824440,383,413,0,пресс
1775165824441,383,641,0,пресс
1775165824441,383,624,0,пресс
1775165824441,383,-27,0,пресс
1775165824442,383,-688,0,пресс
1775165824442,383,-696,0,пресс
1775165824443,383,-738,0,пресс
1775165824443,383,-988,0,пресс
1775165824444,383,-956,0,пресс
1775165824444,383,-951,0,пресс
1775165824444,383,-1174,0,пресс
1775165824445,383,-1286,0,пресс
1775165824445,383,-726,0,пресс
1775165824446,383,-143,0,пресс
1775165824446,383,-247,0,пресс
1775165824447,383,32,0,пресс
1775165824448,383,446,0,пресс
1775165824448,383,-391,0,пресс
1775165824449,383,-1276,0,пресс
1775165824449,383,-892,0,пресс
1775165824450,383,-651,0,пресс
1775165824450,383,-998,0,пресс
1775165824451,383,-369,0,пресс
1775165824451,383,840,0,пресс
1775165824451,383,299,0,пресс
1775165824452,383,-1400,0,пресс
1775165824452,383,-1509,0,пресс
1775165824740,378,-1509,0,пресс
1775165824741,385,-1509,0,пресс
1775165824742,386,-1509,0,пресс
1775165824743,383,-1509,0,пресс
1775165824743,381,-1509,0,пресс
1775165824744,381,-1509,0,пресс
1775165824745,380,-1509,0,пресс
1775165824745,380,-1509,0,пресс
1775165824746,379,-1509,0,пресс
1775165824746,379,-1509,0,пресс
1775165824996,379,-550,0,пресс
1775165824997,379,64,0,пресс
1775165824998,379,478,0,пресс
1775165824999,379,550,0,пресс
1775165825000,379,718,0,пресс
1775165825001,379,874,0,пресс
1775165825001,379,361,0,пресс
1775165825002,379,-555,0,пресс
1775165825003,379,-1030,0,пресс
1775165825004,379,-560,0,пресс
1775165825005,379,-42,0,пресс
1775165825005,379,29,0,пресс
1775165825006,379,-47,0,пресс
1775165825006,379,44,0,пресс
1775165825007,379,669,0,пресс
1775165825008,379,822,0,пресс
1775165825008,379,-359,0,пресс
1775165825009,379,-983,0,пресс
1775165825009,379,-718,0,пресс
1775165825010,379,-1266,0,пресс
1775165825010,379,-1603,0,пресс
1775165825011,379,-480,0,пресс
1775165825011,379,1447,0,пресс
1775165825012,379,2366,0,пресс
1775165825012,379,1640,0,пресс
1775165825013,379,1090,0,пресс
1775165825013,379,1248,0,пресс
1775165825014,379,1092,0,пресс
1775165825015,379,802,0,пресс
1775165825015,379,884,0,пресс
1775165825016,379,949,0,пресс
1775165825016,379,790,0,пресс
1775165825017,379,728,0,пресс
1775165825017,379,795,0,пресс
1775165825018,379,723,0,пресс
1775165825019,379,512,0,пресс
1775165825019,379,341,0,пресс
1775165825020,379,304,0,пресс
1775165825021,379,351,0,пресс
1775165825021,379,361,0,пресс
1775165825022,379,287,0,пресс
1775165825023,379,208,0,пресс
1775165825023,379,131,0,пресс
1775165825024,379,-845,0,пресс
1775165825024,379,-1662,0,пресс
1775165825025,379,-39,0,пресс
1775165825025,379,1390,0,пресс
1775165825026,379,426,0,пресс
1775165825026,379,-792,0,пресс
1775165825026,379,-698,0,пресс
1775165825027,379,520,0,пресс
1775165825027,379,1204,0,пресс
1775165825028,379,802,0,пресс
1775165825028,379,617,0,пресс
1775165825029,379,750,0,пресс
1775165825029,379,577,0,пресс
1775165825030,379,401,0,пресс
1775165825030,379,498,0,пресс
1775165825030,379,552,0,пресс
1775165825031,379,510,0,пресс
1775165825032,379,517,0,пресс
1775165825032,379,319,0,пресс
1775165825032,379,-302,0,пресс
1775165825033,379,-381,0,пресс
1775165825033,379,483,0,пресс
1775165825034,379,768,0,пресс
1775165825034,379,356,0,пресс
1775165825035,379,230,0,пресс
1775165825035,379,-42,0,пресс
1775165825035,379,-1362,0,пресс
1775165825036,379,-1821,0,пресс
1775165825036,379,84,0,пресс
1775165825037,379,1030,0,пресс
1775165825535,379,-109,0,пресс
1775165825536,379,-2041,0,пресс
1775165825537,379,-3484,0,пресс
1775165825537,379,-2874,0,пресс
1775165825538,379,-2064,0,пресс
1775165825538,379,-2299,0,пресс
1775165825539,379,-2212,0,пресс
1775165825540,379,-1734,0,пресс
1775165825540,379,-770,0,пресс
1775165825541,379,887,0,пресс
1775165825542,379,1444,0,пресс
1775165825542,379,384,0,пресс
1775165825543,379,-329,0,пресс
1775165825544,379,661,0,пресс
1775165825544,379,1917,0,пресс
1775165825544,379,1499,0,пресс
1775165825545,379,765,0,пресс
1775165825545,379,550,0,пресс
1775165825546,379,-631,0,пресс
1775165825546,379,-1100,0,пресс
1775165825547,379,830,0,пресс
1775165825547,379,1714,0,пресс
1775165825548,379,641,0,пресс
1775165825548,379,545,0,пресс
1775165825548,379,978,0,пресс
1775165825549,379,644,0,пресс
1775165825549,379,428,0,пресс
1775165825550,379,557,0,пресс
1775165825550,379,493,0,пресс
1775165825551,379,366,0,пресс
1775165825551,379,346,0,пресс
1775165825552,379,302,0,пресс
1775165825552,379,188,0,пресс
1775165825553,379,-778,0,пресс
1775165825553,379,-3003,0,пресс
1775165825554,379,-3992,0,пресс
1775165825555,379,-2906,0,пресс
1775165825555,379,-2468,0,пресс
1775165825556,379,-2748,0,пресс
1775165825556,379,-2133,0,пресс
1775165825556,379,-1370,0,пресс
1775165825557,379,-1437,0,пресс
1775165825557,379,-1794,0,пресс
1775165825558,379,-1816,0,пресс
1775165825558,379,-1732,0,пресс
1775165825559,379,-1727,0,пресс
1775165825559,379,-1642,0,пресс
1775165825560,379,-1509,0,пресс
1775165825560,379,-1452,0,пресс
1775165825561,379,-1353,0,пресс
1775165825561,379,-1189,0,пресс
1775165825561,379,-1174,0,пресс
1775165825562,379,-1167,0,пресс
1775165825562,379,-963,0,пресс
1775165825563,379,-832,0,пресс
1775165825563,379,-688,0,пресс
1775165825564,379,-354,0,пресс
1775165825564,379,-9,0,пресс
1775165825565,379,280,0,пресс
1775165825565,379,379,0,пресс
1775165825565,379,517,0,пресс
1775165825566,379,721,0,пресс
1775165825566,379,740,0,пресс
1775165825567,379,619,0,пресс
1775165825567,379,344,0,пресс
1775165825568,379,-133,0,пресс
1775165825568,379,-441,0,пресс
1775165825568,379,-391,0,пресс
1775165825569,379,-346,0,пресс
1775165825569,379,-520,0,пресс
1775165825570,379,-1194,0,пресс
1775165825571,379,-1640,0,пресс
1775165825571,379,-1268,0,пресс
1775165825763,379,-1268,0,пресс
1775165825764,380,-1268,0,пресс
1775165825765,410,-1268,0,пресс
1775165825766,388,-1268,0,пресс
1775165825767,392,-1268,0,пресс
1775165825767,402,-1268,0,пресс
1775165825768,376,-1268,0,пресс
1775165825768,376,-1268,0,пресс
1775165825769,391,-1268,0,пресс
1775165825769,377,-1268,0,пресс
1775165826120,377,-1035,0,пресс
1775165826121,377,-1177,0,пресс
1775165826122,377,-1020,0,пресс
1775165826123,377,-805,0,пресс
1775165826123,377,-973,0,пресс
1775165826124,377,-1033,0,пресс
1775165826125,377,-924,0,пресс
1775165826126,377,-1035,0,пресс
1775165826126,377,-1008,0,пресс
1775165826127,377,-750,0,пресс
1775165826127,377,-649,0,пресс
1775165826128,377,-631,0,пресс
1775165826128,377,-731,0,пресс
1775165826128,377,-884,0,пресс
1775165826129,377,-748,0,пресс
1775165826129,377,-584,0,пресс
1775165826130,377,-681,0,пресс
1775165826130,377,-701,0,пресс
1775165826131,377,-475,0,пресс
1775165826131,377,-423,0,пресс
1775165826131,377,-589,0,пресс
1775165826132,377,-582,0,пресс
1775165826132,377,-564,0,пресс
1775165826133,377,-617,0,пресс
1775165826133,377,-537,0,пресс
1775165826134,377,-532,0,пресс
1775165826134,377,-639,0,пресс
1775165826135,377,-651,0,пресс
1775165826135,377,-589,0,пресс
1775165826136,377,-577,0,пресс
1775165826136,377,-535,0,пресс
1775165826137,377,-465,0,пресс
1775165826138,377,-458,0,пресс
1775165826138,377,-426,0,пресс
1775165826139,377,-525,0,пресс
1775165826139,377,-649,0,пресс
1775165826140,377,-525,0,пресс
1775165826140,377,-498,0,пресс
1775165826140,377,-567,0,пресс
1775165826141,377,-376,0,пресс
1775165826141,377,-123,0,пресс
1775165826142,377,-121,0,пресс
1775165826142,377,-247,0,пресс
1775165826142,377,-64,0,пресс
1775165826143,377,-54,0,пресс
1775165826143,377,-584,0,пресс
1775165826144,377,-617,0,пресс
1775165826144,377,-193,0,пресс
1775165826145,377,123,0,пресс
1775165826145,377,74,0,пресс
1775165826145,377,-379,0,пресс
1775165826146,377,-562,0,пресс
1775165826146,377,-567,0,пресс
1775165826147,377,-500,0,пресс
1775165826147,377,-104,0,пресс
1775165826148,377,-59,0,пресс
1775165826148,377,-579,0,пресс
1775165826148,377,-775,0,пресс
1775165826149,377,-569,0,пресс
1775165826149,377,-567,0,пресс
1775165826150,377,-602,0,пресс
1775165826150,377,-436,0,пресс
1775165826151,377,-292,0,пресс
1775165826151,377,-69,0,пресс
1775165826152,377,760,0,пресс
1775165826152,377,1677,0,пресс
1775165826153,377,1427,0,пресс
1775165826153,377,567,0,пресс
1775165826154,377,351,0,пресс
1775165826154,377,733,0,пресс
1775165826155,377,1018,0,пресс
1775165826155,377,872,0,пресс
1775165826156,377,594,0,пресс
1775165826705,377,-7,0,пресс
1775165826706,377,-1003,0,пресс
1775165826707,377,-1333,0,пресс
1775165826708,377,-921,0,пресс
1775165826709,377,-631,0,пресс
1775165826710,377,-158,0,пресс
1775165826710,377,252,0,пресс
1775165826711,377,-488,0,пресс
1775165826711,377,-1134,0,пресс
1775165826712,377,-505,0,пресс
1775165826712,377,195,0,пресс
1775165826713,377,366,0,пресс
1775165826713,377,198,0,пресс
1775165826714,377,-128,0,пресс
1775165826714,377,-218,0,пресс
1775165826715,377,-329,0,пресс
1775165826715,377,-520,0,пресс
1775165826716,377,-359,0,пресс
1775165826716,377,-133,0,пресс
1775165826716,377,-379,0,пресс
1775165826717,377,-634,0,пресс
1775165826717,377,-158,0,пресс
1775165826718,377,242,0,пресс
1775165826718,377,-366,0,пресс
1775165826719,377,-1112,0,пресс
1775165826719,377,-1072,0,пресс
1775165826719,377,-830,0,пресс
1775165826720,377,-887,0,пресс
1775165826721,377,-882,0,пресс
1775165826722,377,-738,0,пресс
1775165826722,377,-726,0,пресс
1775165826723,377,-795,0,пресс
1775165826723,377,-728,0,пресс
1775165826724,377,-674,0,пресс
1775165826724,377,-713,0,пресс
1775165826724,377,-644,0,пресс
1775165826725,377,-542,0,пресс
1775165826725,377,-579,0,пресс
1775165826726,377,-656,0,пресс
1775165826726,377,-612,0,пресс
1775165826727,377,-530,0,пресс
1775165826727,377,-557,0,пресс
1775165826727,377,-592,0,пресс
1775165826728,377,-540,0,пресс
1775165826728,377,-530,0,пресс
1775165826729,377,-567,0,пресс
1775165826729,377,-547,0,пресс
1775165826730,377,-520,0,пресс
1775165826730,377,-530,0,пресс
1775165826731,377,-517,0,пресс
1775165826732,377,-475,0,пресс
1775165826732,377,-242,0,пресс
1775165826733,377,495,0,пресс
1775165826734,377,1003,0,пресс
1775165826735,377,753,0,пресс
1775165826736,377,659,0,пресс
1775165826736,377,857,0,пресс
1775165826737,377,773,0,пресс
1775165826738,377,411,0,пресс
1775165826739,377,104,0,пресс
1775165826740,377,443,0,пресс
1775165826741,377,1251,0,пресс
1775165826741,377,1464,0,пресс
1775165826742,377,1142,0,пресс
1775165826743,377,1075,0,пресс
1775165826743,377,1328,0,пресс
1775165826744,377,1494,0,пресс
1775165826745,377,1182,0,пресс
1775165826745,377,686,0,пресс
1775165826746,377,455,0,пресс
1775165826747,377,376,0,пресс
1775165826748,377,386,0,пресс
1775165826748,377,470,0,пресс
1775165826778,367,470,0,пресс
1775165826779,375,470,0,пресс
1775165826780,375,470,0,пресс
1775165826780,374,470,0,пресс
1775165826781,374,470,0,пресс
1775165826782,374,470,0,пресс
1775165826783,374,470,0,пресс
1775165826783,374,470,0,пресс
1775165826784,374,470,0,пресс
1775165826784,374,470,0,пресс
1775165827245,374,532,0,пресс
1775165827246,374,602,0,пресс
1775165827247,374,584,0,пресс
1775165827247,374,369,0,пресс
1775165827248,374,255,0,пресс
1775165827249,374,349,0,пресс
1775165827249,374,257,0,пресс
1775165827250,374,123,0,пресс
1775165827250,374,195,0,пресс
1775165827250,374,193,0,пресс
1775165827251,374,143,0,пресс
1775165827251,374,195,0,пресс
1775165827252,374,215,0,пресс
1775165827252,374,190,0,пресс
1775165827253,374,158,0,пресс
1775165827254,374,104,0,пресс
1775165827255,374,143,0,пресс
1775165827256,374,262,0,пресс
1775165827257,374,287,0,пресс
1775165827257,374,257,0,пресс
1775165827258,374,299,0,пресс
1775165827259,374,106,0,пресс
1775165827259,374,-230,0,пресс
1775165827260,374,198,0,пресс
1775165827261,374,837,0,пресс
1775165827262,374,391,0,пресс
1775165827262,374,-681,0,пресс
1775165827263,374,-852,0,пресс
1775165827263,374,168,0,пресс
1775165827264,374,473,0,пресс
1775165827265,374,-131,0,пресс
1775165827265,374,-158,0,пресс
1775165827266,374,27,0,пресс
1775165827266,374,-267,0,пресс
1775165827267,374,-835,0,пресс
1775165827267,374,-1253,0,пресс
1775165827268,374,-916,0,пресс
1775165827268,374,-47,0,пресс
1775165827268,374,408,0,пресс
1775165827269,374,384,0,пресс
1775165827269,374,314,0,пресс
1775165827270,374,327,0,пресс
1775165827271,374,337,0,пресс
1775165827271,374,208,0,пресс
1775165827272,374,69,0,пресс
1775165827273,374,84,0,пресс
1775165827273,374,49,0,пресс
1775165827273,374,-89,0,пресс
1775165827274,374,-242,0,пресс
1775165827274,374,-1154,0,пресс
1775165827275,374,-2500,0,пресс
1775165827275,374,-2393,0,пресс
1775165827276,374,-1345,0,пресс
1775165827276,374,-703,0,пресс
1775165827276,374,-223,0,пресс
1775165827277,374,-29,0,пресс
1775165827277,374,-183,0,пресс
1775165827278,374,-455,0,пресс
1775165827278,374,-661,0,пресс
1775165827279,374,-817,0,пресс
1775165827279,374,-1182,0,пресс
1775165827279,374,-1182,0,пресс
1775165827280,374,-904,0,пресс
1775165827280,374,-973,0,пресс
1775165827281,374,-1080,0,пресс
1775165827281,374,-931,0,пресс
1775165827282,374,-693,0,пресс
1775165827282,374,-669,0,пресс
1775165827283,374,-664,0,пресс
1775165827283,374,-562,0,пресс
1775165827283,374,-641,0,пресс
1775165827284,374,-594,0,пресс
1775165827284,374,-104,0,пресс
1775165827786,374,272,0,пресс
1775165827787,374,109,0,пресс
1775165827788,374,-71,0,пресс
1775165827789,374,-12,0,пресс
1775165827790,374,-54,0,пресс
1775165827791,374,-47,0,пресс
1775165827791,374,252,0,пресс
1775165827792,374,334,0,пресс
1775165827792,374,-203,0,пресс
1775165827793,374,-884,0,пресс
1775165827793,374,-887,0,пресс
1775165827794,374,-195,0,пресс
1775165827794,374,116,0,пресс
1775165827794,374,-175,0,пресс
1775165827795,374,-232,0,пресс
1775165827795,374,-161,0,пресс
1775165827796,374,-468,0,пресс
1775165827796,374,-904,0,пресс
1775165827797,374,-1087,0,пресс
1775165827797,374,-1075,0,пресс
1775165827798,374,-944,0,пресс
1775165827798,374,-788,0,пресс
1775165827798,374,-849,0,пресс
1775165827799,374,-931,0,пресс
1775165827799,374,-468,0,пресс
1775165827800,374,66,0,пресс
1775165827800,374,-431,0,пресс
1775165827801,374,-1063,0,пресс
1775165827801,374,-671,0,пресс
1775165827801,374,-319,0,пресс
1775165827802,374,-339,0,пресс
1775165827803,374,-9,0,пресс
1775165827804,374,354,0,пресс
1775165827804,374,89,0,пресс
1775165827805,374,-401,0,пресс
1775165827805,374,-128,0,пресс
1775165827806,374,255,0,пресс
1775165827806,374,-17,0,пресс
1775165827807,374,-314,0,пресс
1775165827807,374,-607,0,пресс
1775165827808,374,-807,0,пресс
1775165827808,374,-612,0,пресс
1775165827809,374,-475,0,пресс
1775165827809,374,-587,0,пресс
1775165827809,374,-678,0,пресс
1775165827810,374,-517,0,пресс
1775165827810,374,-89,0,пресс
1775165827811,374,-7,0,пресс
1775165827811,374,-475,0,пресс
1775165827812,374,-688,0,пресс
1775165827812,374,-483,0,пресс
1775165827812,374,-297,0,пресс
1775165827813,374,-334,0,пресс
1775165827813,374,-522,0,пресс
1775165827814,374,-540,0,пресс
1775165827814,374,-215,0,пресс
1775165827815,374,465,0,пресс
1775165827815,374,1053,0,пресс
1775165827815,374,703,0,пресс
1775165827816,374,-376,0,пресс
1775165827816,374,-849,0,пресс
1775165827817,374,-659,0,пресс
1775165827817,374,-731,0,пресс
1775165827818,374,-656,0,пресс
1775165827818,374,-356,0,пресс
1775165827819,374,-517,0,пресс
1775165827819,374,-666,0,пресс
1775165827820,374,-455,0,пресс
1775165827820,374,-327,0,пресс
1775165827821,374,118,0,пресс
1775165827821,374,743,0,пресс
1775165827822,374,552,0,пресс
1775165827822,374,-143,0,пресс
1775165827823,374,-143,0,пресс
1775165827824,376,-143,0,пресс
1775165827825,375,-143,0,пресс
1775165827826,376,-143,0,пресс
1775165827826,374,-143,0,пресс
1775165827827,374,-143,0,пресс
1775165827827,373,-143,0,пресс
1775165827827,373,-143,0,пресс
1775165827828,373,-143,0,пресс
1775165827828,373,-143,0,пресс
1775165828415,373,-763,0,пресс
1775165828416,373,-827,0,пресс
1775165828418,373,-436,0,пресс
1775165828419,373,-470,0,пресс
1775165828420,373,-683,0,пресс
1775165828420,373,-572,0,пресс
1775165828421,373,-453,0,пресс
1775165828422,373,-455,0,пресс
1775165828422,373,-319,0,пресс
1775165828423,373,284,0,пресс
1775165828423,373,874,0,пресс
1775165828424,373,552,0,пресс
1775165828424,373,567,0,пресс
1775165828424,373,1662,0,пресс
1775165828425,373,1848,0,пресс
1775165828425,373,1003,0,пресс
1775165828426,373,706,0,пресс
1775165828426,373,639,0,пресс
1775165828426,373,-148,0,пресс
1775165828427,373,-1035,0,пресс
1775165828427,373,-837,0,пресс
1775165828428,373,240,0,пресс
1775165828428,373,612,0,пресс
1775165828429,373,-671,0,пресс
1775165828429,373,-1690,0,пресс
1775165828430,373,-639,0,пресс
1775165828430,373,272,0,пресс
1775165828430,373,-753,0,пресс
1775165828431,373,-1556,0,пресс
1775165828431,373,-1122,0,пресс
1775165828432,373,-961,0,пресс
1775165828432,373,-954,0,пресс
1775165828432,373,-646,0,пресс
1775165828433,373,-557,0,пресс
1775165828433,373,94,0,пресс
1775165828434,373,837,0,пресс
1775165828434,373,-250,0,пресс
1775165828435,373,-1303,0,пресс
1775165828435,373,-604,0,пресс
1775165828435,373,-265,0,пресс
1775165828436,373,-582,0,пресс
1775165828438,373,324,0,пресс
1775165828438,373,1514,0,пресс
1775165828439,373,936,0,пресс
1775165828439,373,317,0,пресс
1775165828440,373,398,0,пресс
1775165828440,373,-916,0,пресс
1775165828440,373,-1883,0,пресс
1775165828441,373,-1060,0,пресс
1775165828441,373,-790,0,пресс
1775165828442,373,-1167,0,пресс
1775165828442,373,-981,0,пресс
1775165828443,373,-805,0,пресс
1775165828443,373,-874,0,пресс
1775165828443,373,-740,0,пресс
1775165828444,373,-656,0,пресс
1775165828444,373,-810,0,пресс
1775165828445,373,-790,0,пресс
1775165828445,373,-631,0,пресс
1775165828446,373,-654,0,пресс
1775165828446,373,-721,0,пресс
1775165828446,373,-674,0,пресс
1775165828447,373,-659,0,пресс
1775165828447,373,-701,0,пресс
1775165828448,373,-664,0,пресс
1775165828448,373,-594,0,пресс
1775165828449,373,-631,0,пресс
1775165828449,373,-636,0,пресс
1775165828449,373,-607,0,пресс
1775165828450,373,-745,0,пресс
1775165828450,373,-775,0,пресс
1775165828451,373,-485,0,пресс
1775165828451,373,423,0,пресс
1775165828842,373,423,0,пресс
1775165828843,373,423,0,пресс
1775165828843,373,423,0,пресс
1775165828844,382,423,0,пресс
1775165828844,381,423,0,пресс
1775165828845,379,423,0,пресс
1775165828845,376,423,0,пресс
1775165828846,374,423,0,пресс
1775165828847,377,423,0,пресс
1775165828847,376,423,0,пресс
1775165828848,376,423,0,пресс
1775165828910,376,1794,0,пресс
1775165828911,376,1578,0,пресс
1775165828912,376,-423,0,пресс
1775165828912,376,-458,0,пресс
1775165828913,376,1848,0,пресс
1775165828914,376,2240,0,пресс
1775165828914,376,778,0,пресс
1775165828915,376,448,0,пресс
1775165828916,376,1072,0,пресс
1775165828917,376,1300,0,пресс
1775165828917,376,996,0,пресс
1775165828918,376,666,0,пресс
1775165828918,376,696,0,пресс
1775165828918,376,1008,0,пресс
1775165828919,376,1025,0,пресс
1775165828919,376,733,0,пресс
1775165828921,376,577,0,пресс
1775165828922,376,555,0,пресс
1775165828922,376,577,0,пресс
1775165828923,376,564,0,пресс
1775165828923,376,245,0,пресс
1775165828924,376,-61,0,пресс
1775165828924,376,361,0,пресс
1775165828925,376,963,0,пресс
1775165828925,376,1008,0,пресс
1775165828926,376,718,0,пресс
1775165828926,376,-37,0,пресс
1775165828926,376,-842,0,пресс
1775165828927,376,-307,0,пресс
1775165828927,376,626,0,пресс
1775165828928,376,396,0,пресс
1775165828928,376,143,0,пресс
1775165828929,376,426,0,пресс
1775165828929,376,349,0,пресс
1775165828930,376,56,0,пресс
1775165828930,376,79,0,пресс
1775165828931,376,190,0,пресс
1775165828931,376,128,0,пресс
1775165828931,376,29,0,пресс
1775165828932,376,-32,0,пресс
1775165828932,376,-32,0,пресс
1775165828933,376,4,0,пресс
1775165828933,376,-19,0,пресс
1775165828934,376,-116,0,пресс
1775165828934,376,-272,0,пресс
1775165828934,376,-384,0,пресс
1775165828935,376,-277,0,пресс
1775165828935,376,-118,0,пресс
1775165828935,376,-138,0,пресс
1775165828936,376,-550,0,пресс
1775165828937,376,-1774,0,пресс
1775165828937,376,-2753,0,пресс
1775165828938,376,-2284,0,пресс
1775165828938,376,-1747,0,пресс
1775165828939,376,-1888,0,пресс
1775165828939,376,-1813,0,пресс
1775165828940,376,-1608,0,пресс
1775165828940,376,-1580,0,пресс
1775165828941,376,-1058,0,пресс
1775165828941,376,260,0,пресс
1775165828942,376,991,0,пресс
1775165828942,376,564,0,пресс
1775165828942,376,416,0,пресс
1775165828943,376,676,0,пресс
1775165828943,376,463,0,пресс
1775165828944,376,123,0,пресс
1775165828944,376,143,0,пресс
1775165828945,376,235,0,пресс
1775165828945,376,163,0,пресс
1775165828945,376,101,0,пресс
1775165828946,376,89,0,пресс
1775165828946,376,12,0,пресс
1775165828947,376,-14,0,пресс
1775165829496,376,-34,0,пресс
1775165829496,376,-208,0,пресс
1775165829497,376,-198,0,пресс
1775165829498,376,4,0,пресс
1775165829498,376,-579,0,пресс
1775165829499,376,-1890,0,пресс
1775165829499,376,-1994,0,пресс
1775165829500,376,-1020,0,пресс
1775165829500,376,-800,0,пресс
1775165829501,376,-906,0,пресс
1775165829502,376,-768,0,пресс
1775165829502,376,-1216,0,пресс
1775165829503,376,-1823,0,пресс
1775165829504,376,-1489,0,пресс
1775165829504,376,-1043,0,пресс
1775165829505,376,-1077,0,пресс
1775165829505,376,-369,0,пресс
1775165829506,376,788,0,пресс
1775165829506,376,1045,0,пресс
1775165829507,376,693,0,пресс
1775165829507,376,309,0,пресс
1775165829507,376,96,0,пресс
1775165829508,376,-337,0,пресс
1775165829508,376,-1335,0,пресс
1775165829509,376,-1759,0,пресс
1775165829509,376,-1298,0,пресс
1775165829510,376,-1033,0,пресс
1775165829510,376,-1075,0,пресс
1775165829511,376,-954,0,пресс
1775165829511,376,-750,0,пресс
1775165829512,376,-607,0,пресс
1775165829512,376,-706,0,пресс
1775165829512,376,-986,0,пресс
1775165829513,376,-1040,0,пресс
1775165829513,376,-889,0,пресс
1775165829514,376,-765,0,пресс
1775165829514,376,-649,0,пресс
1775165829515,376,-629,0,пресс
1775165829515,376,-765,0,пресс
1775165829516,376,-795,0,пресс
1775165829516,376,-564,0,пресс
1775165829516,376,-403,0,пресс
1775165829517,376,-535,0,пресс
1775165829517,376,-666,0,пресс
1775165829518,376,-661,0,пресс
1775165829518,376,-562,0,пресс
1775165829519,376,-389,0,пресс
1775165829519,376,-413,0,пресс
1775165829520,376,-577,0,пресс
1775165829521,376,-498,0,пресс
1775165829521,376,-369,0,пресс
1775165829521,376,-361,0,пресс
1775165829522,376,-398,0,пресс
1775165829522,376,-453,0,пресс
1775165829523,376,-371,0,пресс
1775165829523,376,-275,0,пресс
1775165829524,376,-294,0,пресс
1775165829524,376,-272,0,пресс
1775165829525,376,-240,0,пресс
1775165829525,376,-322,0,пресс
1775165829525,376,-522,0,пресс
1775165829526,376,-520,0,пресс
1775165829526,376,-262,0,пресс
1775165829527,376,-252,0,пресс
1775165829527,376,-381,0,пресс
1775165829528,376,-356,0,пресс
1775165829528,376,-339,0,пресс
1775165829528,376,-282,0,пресс
1775165829529,376,-220,0,пресс
1775165829530,376,-341,0,пресс
1775165829530,376,-401,0,пресс
1775165829531,376,-215,0,пресс
1775165829531,376,-272,0,пресс
1775165829854,375,-272,0,пресс
1775165829855,375,-272,0,пресс
1775165829855,376,-272,0,пресс
1775165829856,376,-272,0,пресс
1775165829857,374,-272,0,пресс
1775165829858,376,-272,0,пресс
1775165829859,375,-272,0,пресс
1775165829859,374,-272,0,пресс
1775165829860,372,-272,0,пресс
1775165829860,372,-272,0,пресс
1775165830079,372,-604,0,пресс
1775165830080,372,-532,0,пресс
1775165830081,372,-277,0,пресс
1775165830082,372,-294,0,пресс
1775165830082,372,-247,0,пресс
1775165830083,372,-247,0,пресс
1775165830083,372,-488,0,пресс
1775165830084,372,-500,0,пресс
1775165830085,372,-252,0,пресс
1775165830086,372,7,0,пресс
1775165830086,372,289,0,пресс
1775165830088,372,265,0,пресс
1775165830088,372,-101,0,пресс
1775165830088,372,-297,0,пресс
1775165830088,372,-309,0,пресс
1775165830089,372,-346,0,пресс
1775165830089,372,-170,0,пресс
1775165830090,372,443,0,пресс
1775165830090,372,906,0,пресс
1775165830090,372,289,0,пресс
1775165830091,372,-842,0,пресс
1775165830091,372,-1063,0,пресс
1775165830092,372,-560,0,пресс
1775165830092,372,-495,0,пресс
1775165830093,372,-631,0,пресс
1775165830093,372,-436,0,пресс
1775165830094,372,-366,0,пресс
1775165830094,372,-597,0,пресс
1775165830094,372,-651,0,пресс
1775165830095,372,-423,0,пресс
1775165830095,372,-433,0,пресс
1775165830096,372,-733,0,пресс
1775165830096,372,-718,0,пресс
1775165830097,372,-498,0,пресс
1775165830097,372,-557,0,пресс
1775165830097,372,-512,0,пресс
1775165830098,372,517,0,пресс
1775165830098,372,1843,0,пресс
1775165830099,372,1709,0,пресс
1775165830099,372,859,0,пресс
1775165830100,372,778,0,пресс
1775165830100,372,852,0,пресс
1775165830100,372,666,0,пресс
1775165830101,372,674,0,пресс
1775165830101,372,708,0,пресс
1775165830101,372,552,0,пресс
1775165830102,372,500,0,пресс
1775165830103,372,532,0,пресс
1775165830104,372,453,0,пресс
1775165830104,372,396,0,пресс
1775165830105,372,416,0,пресс
1775165830105,372,396,0,пресс
1775165830106,372,329,0,пресс
1775165830106,372,329,0,пресс
1775165830107,372,180,0,пресс
1775165830107,372,-584,0,пресс
1775165830107,372,-1211,0,пресс
1775165830108,372,-280,0,пресс
1775165830108,372,911,0,пресс
1775165830109,372,560,0,пресс
1775165830109,372,143,0,пресс
1775165830110,372,498,0,пресс
1775165830110,372,438,0,пресс
1775165830110,372,-379,0,пресс
1775165830111,372,-1509,0,пресс
1775165830111,372,-1955,0,пресс
1775165830112,372,-1481,0,пресс
1775165830112,372,-1248,0,пресс
1775165830112,372,-1380,0,пресс
1775165830113,372,-1291,0,пресс
1775165830113,372,-1174,0,пресс
1775165830114,372,-1164,0,пресс
1775165830114,372,-1100,0,пресс
1775165830621,372,-1023,0,пресс
1775165830622,372,-1028,0,пресс
1775165830622,372,-1013,0,пресс
1775165830623,372,-931,0,пресс
1775165830624,372,-911,0,пресс
1775165830624,372,-926,0,пресс
1775165830625,372,-882,0,пресс
1775165830625,372,-849,0,пресс
1775165830626,372,-800,0,пресс
1775165830627,372,-797,0,пресс
1775165830627,372,-884,0,пресс
1775165830628,372,-859,0,пресс
1775165830628,372,-760,0,пресс
1775165830629,372,-773,0,пресс
1775165830629,372,-788,0,пресс
1775165830630,372,-745,0,пресс
1775165830630,372,-463,0,пресс
1775165830630,372,641,0,пресс
1775165830631,372,1115,0,пресс
1775165830631,372,-488,0,пресс
1775165830632,372,-1422,0,пресс
1775165830632,372,-688,0,пресс
1775165830633,372,-560,0,пресс
1775165830633,372,-882,0,пресс
1775165830634,372,-547,0,пресс
1775165830634,372,-148,0,пресс
1775165830634,372,-163,0,пресс
1775165830635,372,-109,0,пресс
1775165830635,372,612,0,пресс
1775165830636,372,2004,0,пресс
1775165830636,372,2242,0,пресс
1775165830637,372,74,0,пресс
1775165830638,372,-1789,0,пресс
1775165830638,372,-1300,0,пресс
1775165830639,372,-651,0,пресс
1775165830639,372,-941,0,пресс
1775165830640,372,-897,0,пресс
1775165830640,372,-639,0,пресс
1775165830640,372,-783,0,пресс
1775165830641,372,-557,0,пресс
1775165830641,372,473,0,пресс
1775165830642,372,1380,0,пресс
1775165830642,372,1630,0,пресс
1775165830643,372,1360,0,пресс
1775165830643,372,307,0,пресс
1775165830643,372,-726,0,пресс
1775165830644,372,-537,0,пресс
1775165830644,372,-267,0,пресс
1775165830645,372,-817,0,пресс
1775165830645,372,-1172,0,пресс
1775165830645,372,-954,0,пресс
1775165830646,372,-790,0,пресс
1775165830646,372,-812,0,пресс
1775165830647,372,-735,0,пресс
1775165830647,372,-676,0,пресс
1775165830647,372,-708,0,пресс
1775165830648,372,-659,0,пресс
1775165830649,372,-644,0,пресс
1775165830649,372,-602,0,пресс
1775165830649,372,-421,0,пресс
1775165830650,372,-458,0,пресс
1775165830650,372,-564,0,пресс
1775165830651,372,-406,0,пресс
1775165830651,372,-322,0,пресс
1775165830651,372,-386,0,пресс
1775165830652,372,-369,0,пресс
1775165830652,372,-257,0,пресс
1775165830653,372,-205,0,пресс
1775165830653,372,-312,0,пресс
1775165830654,372,-173,0,пресс
1775165830654,372,227,0,пресс
1775165830655,372,299,0,пресс
1775165830655,372,156,0,пресс
1775165830866,372,156,0,пресс
1775165830867,372,156,0,пресс
1775165830868,372,156,0,пресс
1775165830869,371,156,0,пресс
1775165830870,371,156,0,пресс
1775165830870,371,156,0,пресс
1775165830871,371,156,0,пресс
1775165830871,370,156,0,пресс
1775165830872,370,156,0,пресс
1775165830872,370,156,0,пресс
1775165831205,370,225,0,пресс
1775165831207,370,490,0,пресс
1775165831208,370,324,0,пресс
1775165831209,370,-483,0,пресс
1775165831210,370,-683,0,пресс
1775165831211,370,-270,0,пресс
1775165831211,370,-307,0,пресс
1775165831212,370,-408,0,пресс
1775165831213,370,-257,0,пресс
1775165831214,370,-319,0,пресс
1775165831214,370,-408,0,пресс
1775165831215,370,-220,0,пресс
1775165831215,370,-255,0,пресс
1775165831216,370,-453,0,пресс
1775165831216,370,-381,0,пресс
1775165831217,370,-322,0,пресс
1775165831218,370,-252,0,пресс
1775165831219,370,136,0,пресс
1775165831219,370,319,0,пресс
1775165831220,370,-175,0,пресс
1775165831221,370,-423,0,пресс
1775165831222,370,17,0,пресс
1775165831222,370,227,0,пресс
1775165831223,370,-64,0,пресс
1775165831224,370,-344,0,пресс
1775165831224,370,-351,0,пресс
1775165831224,370,-232,0,пресс
1775165831225,370,-193,0,пресс
1775165831225,370,-247,0,пресс
1775165831225,370,-284,0,пресс
1775165831226,370,-188,0,пресс
1775165831226,370,-71,0,пресс
1775165831227,370,-252,0,пресс
1775165831227,370,-401,0,пресс
1775165831228,370,-94,0,пресс
1775165831228,370,32,0,пресс
1775165831229,370,-210,0,пресс
1775165831229,370,-213,0,пресс
1775165831230,370,-166,0,пресс
1775165831230,370,-267,0,пресс
1775165831231,370,-113,0,пресс
1775165831231,370,-2,0,пресс
1775165831231,370,-255,0,пресс
1775165831232,370,-272,0,пресс
1775165831232,370,42,0,пресс
1775165831233,370,74,0,пресс
1775165831233,370,-101,0,пресс
1775165831234,370,-84,0,пресс
1775165831234,370,-64,0,пресс
1775165831234,370,-190,0,пресс
1775165831235,370,-64,0,пресс
1775165831235,370,503,0,пресс
1775165831236,370,577,0,пресс
1775165831237,370,-255,0,пресс
1775165831237,370,-507,0,пресс
1775165831238,370,-49,0,пресс
1775165831239,370,-158,0,пресс
1775165831239,370,-396,0,пресс
1775165831239,370,-64,0,пресс
1775165831240,370,198,0,пресс
1775165831241,370,44,0,пресс
1775165831241,370,-126,0,пресс
1775165831242,370,-104,0,пресс
1775165831242,370,19,0,пресс
1775165831242,370,-42,0,пресс
1775165831243,370,-215,0,пресс
1775165831243,370,-166,0,пресс
1775165831244,370,-34,0,пресс
1775165831244,370,-49,0,пресс
1775165831245,370,-118,0,пресс
1775165831245,370,2,0,пресс
1775165831246,370,106,0,пресс
1775165831246,370,-89,0,пресс
1775165831790,370,-123,0,пресс
1775165831791,370,-29,0,пресс
1775165831792,370,-136,0,пресс
1775165831793,370,-34,0,пресс
1775165831794,370,136,0,пресс
1775165831795,370,-4,0,пресс
1775165831795,370,-14,0,пресс
1775165831796,370,128,0,пресс
1775165831797,370,-4,0,пресс
1775165831797,370,-138,0,пресс
1775165831797,370,-104,0,пресс
1775165831798,370,-213,0,пресс
1775165831798,370,-334,0,пресс
1775165831799,370,-257,0,пресс
1775165831799,370,-247,0,пресс
1775165831800,370,-280,0,пресс
1775165831800,370,-175,0,пресс
1775165831801,370,-156,0,пресс
1775165831801,370,-257,0,пресс
1775165831802,370,-262,0,пресс
1775165831802,370,-255,0,пресс
1775165831803,370,-267,0,пресс
1775165831804,370,-185,0,пресс
1775165831804,370,-168,0,пресс
1775165831805,370,-185,0,пресс
1775165831805,370,-203,0,пресс
1775165831806,370,-361,0,пресс
1775165831806,370,-284,0,пресс
1775165831806,370,104,0,пресс
1775165831807,370,587,0,пресс
1775165831807,370,1100,0,пресс
1775165831808,370,592,0,пресс
1775165831808,370,-835,0,пресс
1775165831809,370,-1068,0,пресс
1775165831809,370,-381,0,пресс
1775165831810,370,-498,0,пресс
1775165831810,370,-802,0,пресс
1775165831810,370,-599,0,пресс
1775165831811,370,-532,0,пресс
1775165831811,370,-609,0,пресс
1775165831812,370,-527,0,пресс
1775165831812,370,-463,0,пресс
1775165831813,370,-463,0,пресс
1775165831813,370,-545,0,пресс
1775165831813,370,-649,0,пресс
1775165831814,370,-572,0,пресс
1775165831814,370,-465,0,пресс
1775165831815,370,-443,0,пресс
1775165831815,370,69,0,пресс
1775165831816,370,1162,0,пресс
1775165831816,370,1533,0,пресс
1775165831817,370,1060,0,пресс
1775165831817,370,902,0,пресс
1775165831817,370,852,0,пресс
1775165831818,370,659,0,пресс
1775165831818,370,825,0,пресс
1775165831819,370,760,0,пресс
1775165831820,370,185,0,пресс
1775165831820,370,237,0,пресс
1775165831821,370,602,0,пресс
1775165831821,370,-319,0,пресс
1775165831821,370,-1595,0,пресс
1775165831822,370,-1412,0,пресс
1775165831822,370,-904,0,пресс
1775165831823,370,-1139,0,пресс
1775165831823,370,-1137,0,пресс
1775165831824,370,-830,0,пресс
1775165831824,370,-845,0,пресс
1775165831824,370,-884,0,пресс
1775165831825,370,-760,0,пресс
1775165831825,370,-743,0,пресс
1775165831826,370,-728,0,пресс
1775165831826,370,-629,0,пресс
1775165831878,369,-629,0,пресс
1775165831879,369,-629,0,пресс
1775165831880,369,-629,0,пресс
1775165831880,368,-629,0,пресс
1775165831881,368,-629,0,пресс
1775165831881,368,-629,0,пресс
1775165831882,367,-629,0,пресс
1775165831882,367,-629,0,пресс
1775165831883,363,-629,0,пресс
1775165831883,363,-629,0,пресс
1775165832334,363,-438,0,пресс
1775165832334,363,458,0,пресс
1775165832335,363,1541,0,пресс
1775165832336,363,1365,0,пресс
1775165832337,363,931,0,пресс
1775165832337,363,1305,0,пресс
1775165832338,363,1392,0,пресс
1775165832339,363,1075,0,пресс
1775165832339,363,726,0,пресс
1775165832340,363,-27,0,пресс
1775165832341,363,56,0,пресс
1775165832343,363,911,0,пресс
1775165832343,363,349,0,пресс
1775165832344,363,-825,0,пресс
1775165832345,363,-1030,0,пресс
1775165832345,363,-788,0,пресс
1775165832346,363,-996,0,пресс
1775165832347,363,-1390,0,пресс
1775165832349,363,-1231,0,пресс
1775165832349,363,-1001,0,пресс
1775165832351,363,-1070,0,пресс
1775165832352,363,-1043,0,пресс
1775165832353,363,-902,0,пресс
1775165832354,363,-862,0,пресс
1775165832355,363,-867,0,пресс
1775165832357,363,-790,0,пресс
1775165832359,363,-698,0,пресс
1775165832359,363,-698,0,пресс
1775165832361,363,-713,0,пресс
1775165832364,363,-659,0,пресс
1775165832365,363,-594,0,пресс
1775165832365,363,-577,0,пресс
1775165832366,363,-560,0,пресс
1775165832366,363,-426,0,пресс
1775165832367,363,-101,0,пресс
1775165832368,363,84,0,пресс
1775165832369,363,230,0,пресс
1775165832370,363,371,0,пресс
1775165832372,363,-327,0,пресс
1775165832372,363,-926,0,пресс
1775165832373,363,-527,0,пресс
1775165832373,363,-339,0,пресс
1775165832374,363,-584,0,пресс
1775165832374,363,-607,0,пресс
1775165832375,363,-344,0,пресс
1775165832375,363,401,0,пресс
1775165832376,363,976,0,пресс
1775165832376,363,416,0,пресс
1775165832377,363,-96,0,пресс
1775165832377,363,421,0,пресс
1775165832377,363,1110,0,пресс
1775165832378,363,1432,0,пресс
1775165832378,363,1474,0,пресс
1775165832379,363,1313,0,пресс
1775165832379,363,1120,0,пресс
1775165832379,363,1050,0,пресс
1775165832380,363,1023,0,пресс
1775165832380,363,874,0,пресс
1775165832380,363,609,0,пресс
1775165832381,363,131,0,пресс
1775165832381,363,-857,0,пресс
1775165832381,363,-1625,0,пресс
1775165832382,363,-1015,0,пресс
1775165832382,363,158,0,пресс
1775165832383,363,589,0,пресс
1775165832383,363,961,0,пресс
1775165832383,363,1313,0,пресс
1775165832384,363,470,0,пресс
1775165832384,363,-297,0,пресс
1775165832385,363,0,0,пресс
1775165832385,363,-314,0,пресс
1775165832385,363,-1246,0,пресс
1775165832386,363,-1454,0,пресс
1775165832871,363,-1162,0,пресс
1775165832871,363,-1105,0,пресс
1775165832872,363,-1115,0,пресс
1775165832873,363,-958,0,пресс
1775165832874,363,-877,0,пресс
1775165832875,363,-852,0,пресс
1775165832875,363,-889,0,пресс
1775165832876,363,-914,0,пресс
1775165832876,363,-242,0,пресс
1775165832877,363,1020,0,пресс
1775165832877,363,1330,0,пресс
1775165832878,363,703,0,пресс
1775165832878,363,753,0,пресс
1775165832879,363,1251,0,пресс
1775165832879,363,1268,0,пресс
1775165832880,363,1070,0,пресс
1775165832880,363,973,0,пресс
1775165832880,363,958,0,пресс
1775165832881,363,956,0,пресс
1775165832881,363,909,0,пресс
1775165832882,363,820,0,пресс
1775165832882,363,669,0,пресс
1775165832883,363,562,0,пресс
1775165832883,363,510,0,пресс
1775165832884,363,495,0,пресс
1775165832884,363,465,0,пресс
1775165832884,363,255,0,пресс
1775165832885,363,116,0,пресс
1775165832885,363,-29,0,пресс
1775165832886,363,-337,0,пресс
1775165832887,363,-354,0,пресс
1775165832888,363,-158,0,пресс
1775165832888,363,-470,0,пресс
1775165832889,363,-1335,0,пресс
1775165832889,363,-1665,0,пресс
1775165832890,363,-1325,0,пресс
1775165832890,363,-1144,0,пресс
1775165832891,363,-1048,0,пресс
1775165832891,363,-961,0,пресс
1775165832891,363,-1015,0,пресс
1775165832892,363,-887,0,пресс
1775165832892,363,-743,0,пресс
1775165832893,363,-929,0,пресс
1775165832893,363,-986,0,пресс
1775165832894,363,-775,0,пресс
1775165832894,363,-597,0,пресс
1775165832895,363,-225,0,пресс
1775165832895,363,-180,0,пресс
1775165832895,363,-872,0,пресс
1775165832896,363,-899,0,пресс
1775165832896,363,-39,0,пресс
1775165832897,363,59,0,пресс
1775165832897,363,-713,0,пресс
1775165832898,363,-822,0,пресс
1775165832898,363,-396,0,пресс
1775165832898,363,-582,0,пресс
1775165832899,363,-597,0,пресс
1775165832899,363,205,0,пресс
1775165832900,363,621,0,пресс
1775165832900,363,61,0,пресс
1775165832901,363,-713,0,пресс
1775165832901,363,-981,0,пресс
1775165832901,363,-780,0,пресс
1775165832902,363,-671,0,пресс
1775165832902,363,-592,0,пресс
1775165832903,363,-109,0,пресс
1775165832904,363,175,0,пресс
1775165832904,363,-272,0,пресс
1775165832905,363,-644,0,пресс
1775165832905,363,-255,0,пресс
1775165832906,363,81,0,пресс
1775165832906,363,-428,0,пресс
1775165832906,363,-726,0,пресс
1775165832907,362,-726,0,пресс
1775165832908,362,-726,0,пресс
1775165832909,362,-726,0,пресс
1775165832910,362,-726,0,пресс
1775165832910,362,-726,0,пресс
1775165832911,361,-726,0,пресс
1775165832911,362,-726,0,пресс
1775165832911,362,-726,0,пресс
1775165832912,363,-726,0,пресс
1775165832912,363,-726,0,пресс
1775165833455,363,-332,0,пресс
1775165833456,363,-250,0,пресс
1775165833457,363,-381,0,пресс
1775165833457,363,-351,0,пресс
1775165833458,363,-384,0,пресс
1775165833458,363,-344,0,пресс
1775165833459,363,-292,0,пресс
1775165833459,363,-381,0,пресс
1775165833460,363,-344,0,пресс
1775165833461,363,-245,0,пресс
1775165833461,363,-183,0,пресс
1775165833462,363,-24,0,пресс
1775165833463,363,-185,0,пресс
1775165833463,363,-564,0,пресс
1775165833464,363,-332,0,пресс
1775165833464,363,56,0,пресс
1775165833465,363,-19,0,пресс
1775165833465,363,302,0,пресс
1775165833466,363,1303,0,пресс
1775165833466,363,1372,0,пресс
1775165833466,363,12,0,пресс
1775165833467,363,-210,0,пресс
1775165833467,363,971,0,пресс
1775165833468,363,765,0,пресс
1775165833468,363,-106,0,пресс
1775165833469,363,106,0,пресс
1775165833469,363,371,0,пресс
1775165833470,363,156,0,пресс
1775165833471,363,-59,0,пресс
1775165833471,363,-218,0,пресс
1775165833472,363,-168,0,пресс
1775165833472,363,116,0,пресс
1775165833473,363,223,0,пресс
1775165833473,363,12,0,пресс
1775165833474,363,-324,0,пресс
1775165833474,363,-621,0,пресс
1775165833474,363,-483,0,пресс
1775165833475,363,-250,0,пресс
1775165833475,363,-512,0,пресс
1775165833476,363,-636,0,пресс
1775165833476,363,-555,0,пресс
1775165833476,363,-624,0,пресс
1775165833477,363,-503,0,пресс
1775165833477,363,-247,0,пресс
1775165833478,363,89,0,пресс
1775165833478,363,101,0,пресс
1775165833479,363,-562,0,пресс
1775165833479,363,-753,0,пресс
1775165833480,363,-403,0,пресс
1775165833480,363,-495,0,пресс
1775165833481,363,-507,0,пресс
1775165833481,363,-2,0,пресс
1775165833481,363,223,0,пресс
1775165833482,363,190,0,пресс
1775165833482,363,448,0,пресс
1775165833483,363,245,0,пресс
1775165833483,363,-542,0,пресс
1775165833483,363,-743,0,пресс
1775165833484,363,-468,0,пресс
1775165833484,363,-564,0,пресс
1775165833485,363,-678,0,пресс
1775165833485,363,-540,0,пресс
1775165833486,363,-505,0,пресс
1775165833486,363,-532,0,пресс
1775165833486,363,-488,0,пресс
1775165833488,363,-532,0,пресс
1775165833488,363,-550,0,пресс
1775165833489,363,-168,0,пресс
1775165833489,363,143,0,пресс
1775165833490,363,-166,0,пресс
1775165833490,363,-54,0,пресс
1775165833491,363,674,0,пресс
1775165833491,363,656,0,пресс
1775165833929,364,656,0,пресс
1775165833929,365,656,0,пресс
1775165833930,365,656,0,пресс
1775165833931,364,656,0,пресс
1775165833932,364,656,0,пресс
1775165833933,364,656,0,пресс
1775165833933,363,656,0,пресс
1775165833934,362,656,0,пресс
1775165833934,362,656,0,пресс
1775165833935,361,656,0,пресс
1775165833936,361,656,0,пресс
1775165833996,361,299,0,пресс
1775165833997,361,441,0,пресс
1775165833997,361,498,0,пресс
1775165833998,361,324,0,пресс
1775165833998,361,329,0,пресс
1775165833999,361,394,0,пресс
1775165833999,361,252,0,пресс
1775165834000,361,74,0,пресс
1775165834000,361,2,0,пресс
1775165834001,361,-210,0,пресс
1775165834001,361,-884,0,пресс
1775165834001,361,-1439,0,пресс
1775165834002,361,-1142,0,пресс
1775165834003,361,-773,0,пресс
1775165834004,361,-916,0,пресс
1775165834005,361,-993,0,пресс
1775165834006,361,-785,0,пресс
1775165834006,361,-654,0,пресс
1775165834007,361,-711,0,пресс
1775165834008,361,-656,0,пресс
1775165834008,361,-483,0,пресс
1775165834009,361,-483,0,пресс
1775165834009,361,-540,0,пресс
1775165834009,361,-458,0,пресс
1775165834010,361,-426,0,пресс
1775165834010,361,-480,0,пресс
1775165834011,361,-503,0,пресс
1775165834011,361,-550,0,пресс
1775165834012,361,-614,0,пресс
1775165834012,361,-577,0,пресс
1775165834012,361,-517,0,пресс
1775165834013,361,-547,0,пресс
1775165834013,361,-577,0,пресс
1775165834014,361,-532,0,пресс
1775165834014,361,-455,0,пресс
1775165834015,361,-463,0,пресс
1775165834015,361,-547,0,пресс
1775165834015,361,-535,0,пресс
1775165834016,361,-396,0,пресс
1775165834016,361,-250,0,пресс
1775165834017,361,-185,0,пресс
1775165834017,361,-178,0,пресс
1775165834018,361,-131,0,пресс
1775165834018,361,-334,0,пресс
1775165834018,361,-678,0,пресс
1775165834019,361,-498,0,пресс
1775165834020,361,294,0,пресс
1775165834021,361,1018,0,пресс
1775165834021,361,1072,0,пресс
1775165834022,361,1097,0,пресс
1775165834022,361,1246,0,пресс
1775165834023,361,946,0,пресс
1775165834023,361,-2,0,пресс
1775165834024,361,-1038,0,пресс
1775165834024,361,-232,0,пресс
1775165834025,361,1541,0,пресс
1775165834025,361,1613,0,пресс
1775165834025,361,983,0,пресс
1775165834026,361,1077,0,пресс
1775165834026,361,1058,0,пресс
1775165834027,361,735,0,пресс
1775165834027,361,656,0,пресс
1775165834027,361,661,0,пресс
1775165834028,361,557,0,пресс
1775165834028,361,460,0,пресс
1775165834029,361,384,0,пресс
1775165834029,361,332,0,пресс
1775165834030,361,374,0,пресс
1775165834030,361,470,0,пресс
1775165834031,361,726,0,пресс
1775165834031,361,963,0,пресс
1775165834031,361,619,0,пресс
1775165834032,361,44,0,пресс
1775165834535,361,-356,0,пресс
1775165834536,361,-401,0,пресс
1775165834537,361,146,0,пресс
1775165834537,361,280,0,пресс
1775165834538,361,44,0,пресс
1775165834539,361,190,0,пресс
1775165834540,361,-99,0,пресс
1775165834541,361,-394,0,пресс
1775165834541,361,-22,0,пресс
1775165834542,361,-569,0,пресс
1775165834542,361,-1704,0,пресс
1775165834543,361,-1134,0,пресс
1775165834543,361,270,0,пресс
1775165834544,361,260,0,пресс
1775165834544,361,-649,0,пресс
1775165834545,361,-802,0,пресс
1775165834545,361,-131,0,пресс
1775165834545,361,223,0,пресс
1775165834546,361,-123,0,пресс
1775165834546,361,-676,0,пресс
1775165834547,361,-1129,0,пресс
1775165834547,361,-1110,0,пресс
1775165834548,361,-867,0,пресс
1775165834548,361,-889,0,пресс
1775165834549,361,-874,0,пресс
1775165834549,361,-785,0,пресс
1775165834550,361,-765,0,пресс
1775165834550,361,-703,0,пресс
1775165834551,361,-688,0,пресс
1775165834551,361,-688,0,пресс
1775165834551,361,-805,0,пресс
1775165834552,361,-978,0,пресс
1775165834553,361,-770,0,пресс
1775165834553,361,-550,0,пресс
1775165834554,361,-678,0,пресс
1775165834554,361,-763,0,пресс
1775165834555,361,-666,0,пресс
1775165834555,361,-361,0,пресс
1775165834556,361,337,0,пресс
1775165834556,361,770,0,пресс
1775165834556,361,218,0,пресс
1775165834557,361,-113,0,пресс
1775165834557,361,555,0,пресс
1775165834558,361,926,0,пресс
1775165834558,361,431,0,пресс
1775165834559,361,141,0,пресс
1775165834559,361,525,0,пресс
1775165834559,361,723,0,пресс
1775165834560,361,607,0,пресс
1775165834560,361,555,0,пресс
1775165834561,361,483,0,пресс
1775165834561,361,346,0,пресс
1775165834562,361,-113,0,пресс
1775165834562,361,-842,0,пресс
1775165834562,361,-1030,0,пресс
1775165834563,361,-654,0,пресс
1775165834563,361,-532,0,пресс
1775165834564,361,-629,0,пресс
1775165834565,361,-488,0,пресс
1775165834565,361,-386,0,пресс
1775165834565,361,-527,0,пресс
1775165834566,361,-532,0,пресс
1775165834566,361,-403,0,пресс
1775165834567,361,-389,0,пресс
1775165834567,361,-314,0,пресс
1775165834568,361,-398,0,пресс
1775165834568,361,-560,0,пресс
1775165834569,361,-307,0,пресс
1775165834569,361,-314,0,пресс
1775165834570,361,-721,0,пресс
1775165834570,361,-366,0,пресс
1775165834571,361,589,0,пресс
1775165834571,361,916,0,пресс
1775165834940,360,916,0,пресс
1775165834941,360,916,0,пресс
1775165834941,360,916,0,пресс
1775165834942,360,916,0,пресс
1775165834943,360,916,0,пресс
1775165834943,358,916,0,пресс
1775165834944,359,916,0,пресс
1775165834944,357,916,0,пресс
1775165834945,358,916,0,пресс
1775165834946,357,916,0,пресс
1775165835121,357,530,0,пресс
1775165835121,357,262,0,пресс
1775165835122,357,332,0,пресс
1775165835123,357,-156,0,пресс
1775165835124,357,-882,0,пресс
1775165835125,357,-401,0,пресс
1775165835126,357,27,0,пресс
1775165835126,357,-592,0,пресс
1775165835127,357,-240,0,пресс
1775165835128,357,966,0,пресс
1775165835129,357,1030,0,пресс
1775165835130,357,542,0,пресс
1775165835131,357,621,0,пресс
1775165835132,357,701,0,пресс
1775165835133,357,525,0,пресс
1775165835134,357,317,0,пресс
1775165835135,357,96,0,пресс
1775165835138,357,-106,0,пресс
1775165835139,357,-644,0,пресс
1775165835139,357,-755,0,пресс
1775165835140,357,-52,0,пресс
1775165835141,357,-250,0,пресс
1775165835141,357,-671,0,пресс
1775165835142,357,317,0,пресс
1775165835142,357,696,0,пресс
1775165835143,357,22,0,пресс
1775165835143,357,522,0,пресс
1775165835144,357,1157,0,пресс
1775165835144,357,661,0,пресс
1775165835144,357,327,0,пресс
1775165835145,357,332,0,пресс
1775165835145,357,-275,0,пресс
1775165835146,357,-557,0,пресс
1775165835146,357,247,0,пресс
1775165835147,357,-136,0,пресс
1775165835147,357,-1573,0,пресс
1775165835148,357,-1437,0,пресс
1775165835148,357,-788,0,пресс
1775165835149,357,-1082,0,пресс
1775165835150,357,-1152,0,пресс
1775165835150,357,-765,0,пресс
1775165835151,357,-733,0,пресс
1775165835151,357,-669,0,пресс
1775165835152,357,245,0,пресс
1775165835154,357,1035,0,пресс
1775165835155,357,619,0,пресс
1775165835155,357,101,0,пресс
1775165835156,357,-109,0,пресс
1775165835157,357,-426,0,пресс
1775165835158,357,-547,0,пресс
1775165835159,357,-465,0,пресс
1775165835159,357,-351,0,пресс
1775165835160,357,-349,0,пресс
1775165835160,357,-421,0,пресс
1775165835161,357,-361,0,пресс
1775165835161,357,-299,0,пресс
1775165835162,357,-232,0,пресс
1775165835162,357,74,0,пресс
1775165835163,357,-27,0,пресс
1775165835164,357,-629,0,пресс
1775165835165,357,-500,0,пресс
1775165835165,357,66,0,пресс
1775165835166,357,2,0,пресс
1775165835166,357,-175,0,пресс
1775165835167,357,113,0,пресс
1775165835167,357,401,0,пресс
1775165835168,357,396,0,пресс
1775165835169,357,307,0,пресс
1775165835169,357,210,0,пресс
1775165835170,357,66,0,пресс
1775165835170,357,-49,0,пресс
1775165835171,357,94,0,пресс
1775165835171,357,431,0,пресс
1775165835795,357,275,0,пресс
1775165835796,357,-545,0,пресс
1775165835797,357,-721,0,пресс
1775165835798,357,-27,0,пресс
1775165835800,357,32,0,пресс
1775165835800,357,-416,0,пресс
1775165835801,357,-498,0,пресс
1775165835801,357,-560,0,пресс
1775165835802,357,-706,0,пресс
1775165835802,357,-681,0,пресс
1775165835803,357,-639,0,пресс
1775165835804,357,-602,0,пресс
1775165835804,357,-443,0,пресс
1775165835805,357,-272,0,пресс
1775165835805,357,-282,0,пресс
1775165835805,357,-262,0,пресс
1775165835806,357,14,0,пресс
1775165835806,357,168,0,пресс
1775165835807,357,-94,0,пресс
1775165835807,357,-607,0,пресс
1775165835808,357,-475,0,пресс
1775165835808,357,133,0,пресс
1775165835808,357,-116,0,пресс
1775165835809,357,-205,0,пресс
1775165835809,357,512,0,пресс
1775165835810,357,626,0,пресс
1775165835810,357,413,0,пресс
1775165835811,357,567,0,пресс
1775165835811,357,448,0,пресс
1775165835811,357,17,0,пресс
1775165835812,357,-272,0,пресс
1775165835813,357,-364,0,пресс
1775165835814,357,-275,0,пресс
1775165835814,357,-99,0,пресс
1775165835815,357,-223,0,пресс
1775165835815,357,-366,0,пресс
1775165835815,357,297,0,пресс
1775165835816,357,701,0,пресс
1775165835816,357,317,0,пресс
1775165835817,357,287,0,пресс
1775165835817,357,193,0,пресс
1775165835818,357,-364,0,пресс
1775165835818,357,-148,0,пресс
1775165835818,357,555,0,пресс
1775165835819,357,170,0,пресс
1775165835820,357,-822,0,пресс
1775165835820,357,-1571,0,пресс
1775165835821,357,-1957,0,пресс
1775165835821,357,-1779,0,пресс
1775165835822,357,-1509,0,пресс
1775165835822,357,-1479,0,пресс
1775165835822,357,-1400,0,пресс
1775165835823,357,-1164,0,пресс
1775165835823,357,-560,0,пресс
1775165835824,357,168,0,пресс
1775165835824,357,64,0,пресс
1775165835825,357,69,0,пресс
1775165835825,357,956,0,пресс
1775165835825,357,1075,0,пресс
1775165835826,357,537,0,пресс
1775165835826,357,550,0,пресс
1775165835827,357,626,0,пресс
1775165835827,357,369,0,пресс
1775165835828,357,203,0,пресс
1775165835828,357,312,0,пресс
1775165835829,357,433,0,пресс
1775165835829,357,428,0,пресс
1775165835830,357,282,0,пресс
1775165835830,357,91,0,пресс
1775165835830,357,71,0,пресс
1775165835831,357,158,0,пресс
1775165835831,357,180,0,пресс
1775165835832,357,64,0,пресс
1775165835954,358,64,0,пресс
1775165835955,358,64,0,пресс
1775165835955,371,64,0,пресс
1775165835956,357,64,0,пресс
1775165835956,371,64,0,пресс
1775165835957,361,64,0,пресс
1775165835958,356,64,0,пресс
1775165835958,356,64,0,пресс
1775165835959,356,64,0,пресс
1775165835960,361,64,0,пресс
1775165836290,361,-156,0,пресс
1775165836291,361,-215,0,пресс
1775165836292,361,-49,0,пресс
1775165836292,361,270,0,пресс
1775165836293,361,587,0,пресс
1775165836293,361,441,0,пресс
1775165836294,361,-54,0,пресс
1775165836294,361,-223,0,пресс
1775165836295,361,-111,0,пресс
1775165836296,361,-153,0,пресс
1775165836296,361,-265,0,пресс
1775165836297,361,-242,0,пресс
1775165836298,361,-188,0,пресс
1775165836298,361,-158,0,пресс
1775165836299,361,-113,0,пресс
1775165836299,361,-173,0,пресс
1775165836300,361,-257,0,пресс
1775165836300,361,-230,0,пресс
1775165836300,361,-250,0,пресс
1775165836301,361,-354,0,пресс
1775165836301,361,-433,0,пресс
1775165836302,361,-478,0,пресс
1775165836302,361,-436,0,пресс
1775165836304,361,-346,0,пресс
1775165836304,361,-257,0,пресс
1775165836305,361,-89,0,пресс
1775165836305,361,-59,0,пресс
1775165836306,361,-240,0,пресс
1775165836306,361,-173,0,пресс
1775165836307,361,86,0,пресс
1775165836307,361,123,0,пресс
1775165836307,361,47,0,пресс
1775165836308,361,-22,0,пресс
1775165836308,361,-89,0,пресс
1775165836309,361,-180,0,пресс
1775165836309,361,-250,0,пресс
1775165836310,361,-277,0,пресс
1775165836310,361,-540,0,пресс
1775165836310,361,-753,0,пресс
1775165836311,361,-1060,0,пресс
1775165836311,361,-1642,0,пресс
1775165836312,361,-1580,0,пресс
1775165836312,361,-1177,0,пресс
1775165836313,361,-1199,0,пресс
1775165836313,361,-1144,0,пресс
1775165836313,361,-740,0,пресс
1775165836314,361,-498,0,пресс
1775165836314,361,-156,0,пресс
1775165836314,361,597,0,пресс
1775165836315,361,577,0,пресс
1775165836315,361,-530,0,пресс
1775165836316,361,-1248,0,пресс
1775165836316,361,-817,0,пресс
1775165836317,361,0,0,пресс
1775165836317,361,-34,0,пресс
1775165836317,361,-951,0,пресс
1775165836318,361,-1224,0,пресс
1775165836318,361,-825,0,пресс
1775165836319,361,-758,0,пресс
1775165836319,361,-678,0,пресс
1775165836320,361,-540,0,пресс
1775165836320,361,-646,0,пресс
1775165836321,361,-706,0,пресс
1775165836321,361,-626,0,пресс
1775165836322,361,-584,0,пресс
1775165836322,361,-602,0,пресс
1775165836323,361,-631,0,пресс
1775165836323,361,-567,0,пресс
1775165836323,361,-232,0,пресс
1775165836324,361,247,0,пресс
1775165836324,361,128,0,пресс
1775165836325,361,-396,0,пресс
1775165836325,361,-27,0,пресс
1775165836831,361,324,0,пресс
1775165836832,361,-465,0,пресс
1775165836833,361,-825,0,пресс
1775165836833,361,-374,0,пресс
1775165836834,361,-260,0,пресс
1775165836835,361,-361,0,пресс
1775165836836,361,-332,0,пресс
1775165836837,361,-267,0,пресс
1775165836837,361,-104,0,пресс
1775165836837,361,178,0,пресс
1775165836838,361,317,0,пресс
1775165836838,361,-79,0,пресс
1775165836839,361,-500,0,пресс
1775165836839,361,-309,0,пресс
1775165836839,361,-173,0,пресс
1775165836840,361,-346,0,пресс
1775165836840,361,-287,0,пресс
1775165836841,361,-161,0,пресс
1775165836841,361,-232,0,пресс
1775165836842,361,-304,0,пресс
1775165836842,361,-287,0,пресс
1775165836843,361,-156,0,пресс
1775165836843,361,-151,0,пресс
1775165836844,361,-401,0,пресс
1775165836844,361,-413,0,пресс
1775165836845,361,-267,0,пресс
1775165836845,361,-302,0,пресс
1775165836846,361,-260,0,пресс
1775165836846,361,-220,0,пресс
1775165836847,361,-386,0,пресс
1775165836847,361,-455,0,пресс
1775165836848,361,-302,0,пресс
1775165836848,361,-178,0,пресс
1775165836848,361,-277,0,пресс
1775165836849,361,-371,0,пресс
1775165836849,361,-247,0,пресс
1775165836850,361,-188,0,пресс
1775165836850,361,-317,0,пресс
1775165836851,361,-292,0,пресс
1775165836851,361,-203,0,пресс
1775165836851,361,-394,0,пресс
1775165836852,361,-503,0,пресс
1775165836853,361,-292,0,пресс
1775165836854,361,-230,0,пресс
1775165836854,361,-483,0,пресс
1775165836855,361,-671,0,пресс
1775165836855,361,-599,0,пресс
1775165836855,361,-433,0,пресс
1775165836856,361,-428,0,пресс
1775165836856,361,-540,0,пресс
1775165836857,361,-542,0,пресс
1775165836857,361,-495,0,пресс
1775165836858,361,-520,0,пресс
1775165836858,361,-545,0,пресс
1775165836859,361,-475,0,пресс
1775165836859,361,-403,0,пресс
1775165836860,361,-413,0,пресс
1775165836860,361,-408,0,пресс
1775165836860,361,-428,0,пресс
1775165836861,361,-545,0,пресс
1775165836861,361,-560,0,пресс
1775165836862,361,-441,0,пресс
1775165836862,361,-406,0,пресс
1775165836862,361,-408,0,пресс
1775165836863,361,-339,0,пресс
1775165836863,361,-289,0,пресс
1775165836864,361,-366,0,пресс
1775165836864,361,-473,0,пресс
1775165836865,361,-423,0,пресс
1775165836865,361,-148,0,пресс
1775165836866,361,79,0,пресс
1775165836866,361,-225,0,пресс
1775165836866,361,-599,0,пресс
1775165836968,355,-599,0,пресс
1775165836969,358,-599,0,пресс
1775165836969,355,-599,0,пресс
1775165836970,355,-599,0,пресс
1775165836971,355,-599,0,пресс
1775165836972,355,-599,0,пресс
1775165836973,354,-599,0,пресс
1775165836973,353,-599,0,пресс
1775165836974,352,-599,0,пресс
1775165836974,352,-599,0,пресс
1775165837460,352,-431,0,пресс
1775165837460,352,-262,0,пресс
1775165837462,352,-346,0,пресс
1775165837462,352,-317,0,пресс
1775165837463,352,-223,0,пресс
1775165837464,352,-198,0,пресс
1775165837465,352,-250,0,пресс
1775165837465,352,-346,0,пресс
1775165837466,352,-341,0,пресс
1775165837466,352,-272,0,пресс
1775165837466,352,-262,0,пресс
1775165837467,352,-294,0,пресс
1775165837467,352,-339,0,пресс
1775165837468,352,-354,0,пресс
1775165837469,352,-356,0,пресс
1775165837470,352,-86,0,пресс
1775165837470,352,688,0,пресс
1775165837471,352,1172,0,пресс
1775165837471,352,455,0,пресс
1775165837471,352,-525,0,пресс
1775165837472,352,-572,0,пресс
1775165837472,352,-423,0,пресс
1775165837473,352,-599,0,пресс
1775165837473,352,-624,0,пресс
1775165837474,352,-582,0,пресс
1775165837474,352,-597,0,пресс
1775165837475,352,-547,0,пресс
1775165837476,352,-510,0,пресс
1775165837476,352,-485,0,пресс
1775165837477,352,-421,0,пресс
1775165837477,352,-436,0,пресс
1775165837478,352,-458,0,пресс
1775165837478,352,-391,0,пресс
1775165837479,352,-324,0,пресс
1775165837479,352,-329,0,пресс
1775165837479,352,-379,0,пресс
1775165837480,352,-351,0,пресс
1775165837481,352,-262,0,пресс
1775165837481,352,-247,0,пресс
1775165837482,352,-255,0,пресс
1775165837482,352,-193,0,пресс
1775165837482,352,-123,0,пресс
1775165837483,352,-66,0,пресс
1775165837483,352,-9,0,пресс
1775165837484,352,-34,0,пресс
1775165837484,352,-113,0,пресс
1775165837485,352,-118,0,пресс
1775165837485,352,-143,0,пресс
1775165837486,352,-371,0,пресс
1775165837486,352,-505,0,пресс
1775165837487,352,-391,0,пресс
1775165837487,352,-376,0,пресс
1775165837488,352,-433,0,пресс
1775165837488,352,-364,0,пресс
1775165837488,352,-284,0,пресс
1775165837489,352,-277,0,пресс
1775165837489,352,-292,0,пресс
1775165837490,352,-287,0,пресс
1775165837490,352,-349,0,пресс
1775165837490,352,-413,0,пресс
1775165837491,352,-349,0,пресс
1775165837491,352,-344,0,пресс
1775165837492,352,-337,0,пресс
1775165837492,352,-225,0,пресс
1775165837493,352,-223,0,пресс
1775165837493,352,-282,0,пресс
1775165837493,352,-312,0,пресс
1775165837494,352,-334,0,пресс
1775165837494,352,-299,0,пресс
1775165837495,352,-272,0,пресс
1775165837495,352,-257,0,пресс
1775165837496,352,-156,0,пресс
1775165837496,352,-116,0,пресс
1775165837910,352,-265,0,пресс
1775165837910,352,-292,0,пресс
1775165837911,352,-104,0,пресс
1775165837911,352,-116,0,пресс
1775165837911,352,-304,0,пресс
1775165837912,352,-267,0,пресс
1775165837912,352,-180,0,пресс
1775165837913,352,-240,0,пресс
1775165837913,352,-175,0,пресс
1775165837913,352,-47,0,пресс
1775165837914,352,-56,0,пресс
1775165837914,352,-64,0,пресс
1775165837915,352,-104,0,пресс
1775165837915,352,-218,0,пресс
1775165837915,352,-166,0,пресс
1775165837916,352,-71,0,пресс
1775165837916,352,-76,0,пресс
1775165837916,352,-47,0,пресс
1775165837917,352,-170,0,пресс
1775165837917,352,-441,0,пресс
1775165837917,352,-446,0,пресс
1775165837918,352,-101,0,пресс
1775165837918,352,220,0,пресс
1775165837919,352,232,0,пресс
1775165837919,352,-66,0,пресс
1775165837919,352,-401,0,пресс
1775165837920,352,-391,0,пресс
1775165837920,352,-205,0,пресс
1775165837920,352,-198,0,пресс
1775165837921,352,-282,0,пресс
1775165837921,352,-265,0,пресс
1775165837921,352,-126,0,пресс
1775165837922,352,-17,0,пресс
1775165837922,352,-91,0,пресс
1775165837922,352,-257,0,пресс
1775165837923,352,-275,0,пресс
1775165837923,352,-99,0,пресс
1775165837924,352,-64,0,пресс
1775165837924,352,-257,0,пресс
1775165837924,352,-312,0,пресс
1775165837925,352,-175,0,пресс
1775165837925,352,-101,0,пресс
1775165837925,352,-44,0,пресс
1775165837926,352,-9,0,пресс
1775165837926,352,-151,0,пресс
1775165837926,352,-210,0,пресс
1775165837927,352,-27,0,пресс
1775165837927,352,-14,0,пресс
1775165837928,352,-111,0,пресс
1775165837928,352,47,0,пресс
1775165837928,352,106,0,пресс
1775165837929,352,-54,0,пресс
1775165837929,352,-29,0,пресс
1775165837929,352,81,0,пресс
1775165837930,352,27,0,пресс
1775165837930,352,-7,0,пресс
1775165837930,352,-59,0,пресс
1775165837931,352,-292,0,пресс
1775165837931,352,-319,0,пресс
1775165837932,352,-131,0,пресс
1775165837932,352,-106,0,пресс
1775165837932,352,-190,0,пресс
1775165837933,352,-153,0,пресс
1775165837933,352,-64,0,пресс
1775165837933,352,-151,0,пресс
1775165837934,352,-267,0,пресс
1775165837934,352,-133,0,пресс
1775165837934,352,27,0,пресс
1775165837935,352,-109,0,пресс
1775165837935,352,-280,0,пресс
1775165837936,352,-188,0,пресс
1775165837936,352,-61,0,пресс
1775165837936,352,-118,0,пресс
1775165837977,352,-118,0,пресс
1775165837978,351,-118,0,пресс
1775165837979,351,-118,0,пресс
1775165837979,353,-118,0,пресс
1775165837980,359,-118,0,пресс
1775165837981,354,-118,0,пресс
1775165837981,352,-118,0,пресс
1775165837982,351,-118,0,пресс
1775165837982,351,-118,0,пресс
1775165837983,352,-118,0,пресс
1775165838450,352,-190,0,пресс
1775165838451,352,-163,0,пресс
1775165838452,352,-163,0,пресс
1775165838452,352,-166,0,пресс
1775165838453,352,-61,0,пресс
1775165838453,352,-9,0,пресс
1775165838454,352,-138,0,пресс
1775165838455,352,-255,0,пресс
1775165838456,352,-205,0,пресс
1775165838456,352,-146,0,пресс
1775165838457,352,-151,0,пресс
1775165838457,352,-111,0,пресс
1775165838457,352,-111,0,пресс
1775165838458,352,-205,0,пресс
1775165838459,352,-185,0,пресс
1775165838460,352,-104,0,пресс
1775165838460,352,37,0,пресс
1775165838461,352,346,0,пресс
1775165838461,352,322,0,пресс
1775165838461,352,-175,0,пресс
1775165838462,352,-386,0,пресс
1775165838462,352,-175,0,пресс
1775165838463,352,-153,0,пресс
1775165838463,352,-304,0,пресс
1775165838464,352,-193,0,пресс
1775165838464,352,101,0,пресс
1775165838464,352,200,0,пресс
1775165838465,352,118,0,пресс
1775165838465,352,272,0,пресс
1775165838466,352,468,0,пресс
1775165838466,352,200,0,пресс
1775165838467,352,84,0,пресс
1775165838467,352,314,0,пресс
1775165838468,352,195,0,пресс
1775165838468,352,131,0,пресс
1775165838469,352,193,0,пресс
1775165838470,352,-32,0,пресс
1775165838471,352,-94,0,пресс
1775165838471,352,-64,0,пресс
1775165838472,352,-284,0,пресс
1775165838472,352,-408,0,пресс
1775165838472,352,-317,0,пресс
1775165838473,352,-349,0,пресс
1775165838474,352,-451,0,пресс
1775165838474,352,-398,0,пресс
1775165838475,352,-351,0,пресс
1775165838475,352,-381,0,пресс
1775165838476,352,-324,0,пресс
1775165838476,352,-255,0,пресс
1775165838476,352,-317,0,пресс
1775165838477,352,-398,0,пресс
1775165838477,352,-520,0,пресс
1775165838478,352,-530,0,пресс
1775165838478,352,-220,0,пресс
1775165838479,352,-126,0,пресс
1775165838479,352,-247,0,пресс
1775165838480,352,-39,0,пресс
1775165838480,352,190,0,пресс
1775165838480,352,262,0,пресс
1775165838481,352,423,0,пресс
1775165838481,352,299,0,пресс
1775165838482,352,-423,0,пресс
1775165838482,352,-986,0,пресс
1775165838483,352,-897,0,пресс
1775165838483,352,-795,0,пресс
1775165838483,352,-889,0,пресс
1775165838484,352,-778,0,пресс
1775165838484,352,-666,0,пресс
1775165838485,352,-745,0,пресс
1775165838486,352,-688,0,пресс
1775165838487,352,-317,0,пресс
1775165838487,352,220,0,пресс
1775165838488,352,29,0,пресс
1775165838985,353,29,0,пресс
1775165838986,351,29,0,пресс
1775165838987,350,29,0,пресс
1775165838988,350,29,0,пресс
1775165838988,349,29,0,пресс
1775165838989,349,29,0,пресс
1775165838990,348,29,0,пресс
1775165838990,348,29,0,пресс
1775165838991,348,29,0,пресс
1775165838991,348,29,0,пресс
1775165839035,348,-708,0,пресс
1775165839035,348,-609,0,пресс
1775165839036,348,-344,0,пресс
1775165839037,348,-619,0,пресс
1775165839037,348,-624,0,пресс
1775165839038,348,-468,0,пресс
1775165839038,348,-550,0,пресс
1775165839039,348,-542,0,пресс
1775165839039,348,-421,0,пресс
1775165839040,348,-428,0,пресс
1775165839040,348,-371,0,пресс
1775165839041,348,272,0,пресс
1775165839041,348,1236,0,пресс
1775165839041,348,1310,0,пресс
1775165839042,348,755,0,пресс
1775165839042,348,889,0,пресс
1775165839043,348,758,0,пресс
1775165839043,348,-691,0,пресс
1775165839044,348,-1414,0,пресс
1775165839044,348,-688,0,пресс
1775165839044,348,-408,0,пресс
1775165839045,348,-270,0,пресс
1775165839045,348,215,0,пресс
1775165839046,348,255,0,пресс
1775165839046,348,693,0,пресс
1775165839047,348,1343,0,пресс
1775165839047,348,1134,0,пресс
1775165839048,348,773,0,пресс
1775165839048,348,542,0,пресс
1775165839048,348,-104,0,пресс
1775165839049,348,-552,0,пресс
1775165839049,348,76,0,пресс
1775165839050,348,515,0,пресс
1775165839050,348,9,0,пресс
1775165839051,348,104,0,пресс
1775165839051,348,584,0,пресс
1775165839052,348,153,0,пресс
1775165839053,348,-391,0,пресс
1775165839054,348,-567,0,пресс
1775165839055,348,-750,0,пресс
1775165839055,348,-500,0,пресс
1775165839056,348,-190,0,пресс
1775165839056,348,-500,0,пресс
1775165839057,348,-641,0,пресс
1775165839057,348,-327,0,пресс
1775165839058,348,-327,0,пресс
1775165839058,348,-592,0,пресс
1775165839058,348,-599,0,пресс
1775165839059,348,-359,0,пресс
1775165839059,348,-240,0,пресс
1775165839060,348,-381,0,пресс
1775165839060,348,-490,0,пресс
1775165839061,348,-423,0,пресс
1775165839061,348,-351,0,пресс
1775165839062,348,-408,0,пресс
1775165839062,348,-398,0,пресс
1775165839063,348,-257,0,пресс
1775165839063,348,-170,0,пресс
1775165839064,348,-220,0,пресс
1775165839064,348,-403,0,пресс
1775165839064,348,-532,0,пресс
1775165839065,348,-356,0,пресс
1775165839065,348,-96,0,пресс
1775165839066,348,-123,0,пресс
1775165839066,348,-210,0,пресс
1775165839067,348,-235,0,пресс
1775165839067,348,-389,0,пресс
1775165839068,348,-359,0,пресс
1775165839068,348,-96,0,пресс
1775165839069,348,-133,0,пресс
1775165839070,348,-455,0,пресс
1775165839070,348,-552,0,пресс
1775165839071,348,-364,0,пресс
1775165839664,348,-260,0,пресс
1775165839665,348,-304,0,пресс
1775165839666,348,-255,0,пресс
1775165839666,348,-208,0,пресс
1775165839666,348,-351,0,пресс
1775165839668,348,-483,0,пресс
1775165839669,348,-389,0,пресс
1775165839670,348,-245,0,пресс
1775165839670,348,-245,0,пресс
1775165839671,348,-309,0,пресс
1775165839672,348,-369,0,пресс
1775165839672,348,-371,0,пресс
1775165839673,348,-225,0,пресс
1775165839673,348,-126,0,пресс
1775165839674,348,-173,0,пресс
1775165839674,348,-257,0,пресс
1775165839675,348,-272,0,пресс
1775165839675,348,-146,0,пресс
1775165839676,348,-143,0,пресс
1775165839676,348,-240,0,пресс
1775165839677,348,-235,0,пресс
1775165839677,348,-163,0,пресс
1775165839678,348,-9,0,пресс
1775165839678,348,133,0,пресс
1775165839679,348,47,0,пресс
1775165839679,348,-183,0,пресс
1775165839680,348,-141,0,пресс
1775165839680,348,126,0,пресс
1775165839681,348,143,0,пресс
1775165839682,348,-34,0,пресс
1775165839682,348,-47,0,пресс
1775165839683,348,44,0,пресс
1775165839683,348,14,0,пресс
1775165839684,348,-116,0,пресс
1775165839684,348,-54,0,пресс
1775165839685,348,123,0,пресс
1775165839686,348,81,0,пресс
1775165839687,348,-7,0,пресс
1775165839688,348,61,0,пресс
1775165839688,348,52,0,пресс
1775165839689,348,-136,0,пресс
1775165839689,348,-230,0,пресс
1775165839690,348,-128,0,пресс
1775165839690,348,-47,0,пресс
1775165839691,348,-74,0,пресс
1775165839691,348,-52,0,пресс
1775165839691,348,4,0,пресс
1775165839692,348,118,0,пресс
1775165839692,348,287,0,пресс
1775165839693,348,116,0,пресс
1775165839693,348,-250,0,пресс
1775165839694,348,-337,0,пресс
1775165839694,348,-255,0,пресс
1775165839695,348,-153,0,пресс
1775165839695,348,-81,0,пресс
1775165839695,348,-153,0,пресс
1775165839696,348,-170,0,пресс
1775165839696,348,-190,0,пресс
1775165839697,348,-418,0,пресс
1775165839697,348,-421,0,пресс
1775165839698,348,-200,0,пресс
1775165839698,348,-260,0,пресс
1775165839699,348,-505,0,пресс
1775165839699,348,-562,0,пресс
1775165839700,348,-441,0,пресс
1775165839700,348,-498,0,пресс
1775165839701,348,-639,0,пресс
1775165839702,348,-500,0,пресс
1775165839703,348,-364,0,пресс
1775165839703,348,-441,0,пресс
1775165839704,348,-411,0,пресс
1775165839705,348,-255,0,пресс
1775165839705,348,-104,0,пресс
1775165839997,349,-104,0,пресс
1775165839998,350,-104,0,пресс
1775165839999,350,-104,0,пресс
1775165839999,350,-104,0,пресс
1775165840000,350,-104,0,пресс
1775165840000,350,-104,0,пресс
1775165840001,350,-104,0,пресс
1775165840001,350,-104,0,пресс
1775165840002,349,-104,0,пресс
1775165840003,349,-104,0,пресс
1775165840159,349,4,0,пресс
1775165840160,349,-19,0,пресс
1775165840161,349,-17,0,пресс
1775165840161,349,-14,0,пресс
1775165840161,349,-118,0,пресс
1775165840162,349,-163,0,пресс
1775165840163,349,-195,0,пресс
1775165840163,349,-287,0,пресс
1775165840164,349,-327,0,пресс
1775165840165,349,-307,0,пресс
1775165840166,349,-272,0,пресс
1775165840166,349,-220,0,пресс
1775165840167,349,-215,0,пресс
1775165840167,349,-304,0,пресс
1775165840168,349,-356,0,пресс
1775165840168,349,-304,0,пресс
1775165840169,349,-314,0,пресс
1775165840169,349,-366,0,пресс
1775165840170,349,-332,0,пресс
1775165840170,349,-403,0,пресс
1775165840171,349,-669,0,пресс
1775165840172,349,-773,0,пресс
1775165840172,349,-644,0,пресс
1775165840173,349,-607,0,пресс
1775165840173,349,-651,0,пресс
1775165840174,349,-624,0,пресс
1775165840174,349,-614,0,пресс
1775165840174,349,-560,0,пресс
1775165840175,349,-376,0,пресс
1775165840175,349,-304,0,пресс
1775165840176,349,-389,0,пресс
1775165840176,349,-386,0,пресс
1775165840177,349,-317,0,пресс
1775165840177,349,-302,0,пресс
1775165840178,349,-361,0,пресс
1775165840178,349,-448,0,пресс
1775165840178,349,-470,0,пресс
1775165840179,349,-416,0,пресс
1775165840179,349,-374,0,пресс
1775165840180,349,-391,0,пресс
1775165840180,349,-403,0,пресс
1775165840180,349,-441,0,пресс
1775165840181,349,-522,0,пресс
1775165840182,349,-433,0,пресс
1775165840182,349,-257,0,пресс
1775165840182,349,-299,0,пресс
1775165840183,349,-416,0,пресс
1775165840183,349,-374,0,пресс
1775165840184,349,-341,0,пресс
1775165840184,349,-416,0,пресс
1775165840185,349,-426,0,пресс
1775165840185,349,-366,0,пресс
1775165840186,349,-270,0,пресс
1775165840186,349,-17,0,пресс
1775165840187,349,96,0,пресс
1775165840187,349,-275,0,пресс
1775165840188,349,-510,0,пресс
1775165840188,349,-324,0,пресс
1775165840189,349,-297,0,пресс
1775165840189,349,-389,0,пресс
1775165840190,349,-282,0,пресс
1775165840190,349,-188,0,пресс
1775165840190,349,-240,0,пресс
1775165840191,349,-277,0,пресс
1775165840191,349,-183,0,пресс
1775165840192,349,-128,0,пресс
1775165840192,349,-210,0,пресс
1775165840193,349,-200,0,пресс
1775165840193,349,-86,0,пресс
1775165840193,349,-126,0,пресс
1775165840194,349,-173,0,пресс
1775165840194,349,-76,0,пресс
1775165840195,349,-126,0,пресс
1775165840745,349,-225,0,пресс
1775165840746,349,-74,0,пресс
1775165840746,349,52,0,пресс
1775165840747,349,-79,0,пресс
1775165840747,349,-170,0,пресс
1775165840748,349,-44,0,пресс
1775165840749,349,86,0,пресс
1775165840750,349,143,0,пресс
1775165840751,349,270,0,пресс
1775165840752,349,294,0,пресс
1775165840752,349,44,0,пресс
1775165840753,349,-19,0,пресс
1775165840753,349,138,0,пресс
1775165840754,349,-42,0,пресс
1775165840754,349,-277,0,пресс
1775165840754,349,-183,0,пресс
1775165840755,349,-156,0,пресс
1775165840755,349,-297,0,пресс
1775165840756,349,-346,0,пресс
1775165840756,349,-260,0,пресс
1775165840757,349,-158,0,пресс
1775165840757,349,-168,0,пресс
1775165840758,349,-208,0,пресс
1775165840759,349,-218,0,пресс
1775165840759,349,-287,0,пресс
1775165840760,349,-309,0,пресс
1775165840761,349,-178,0,пресс
1775165840762,349,-86,0,пресс
1775165840762,349,-270,0,пресс
1775165840763,349,-451,0,пресс
1775165840764,349,-220,0,пресс
1775165840764,349,27,0,пресс
1775165840765,349,-131,0,пресс
1775165840766,349,-329,0,пресс
1775165840766,349,-245,0,пресс
1775165840767,349,-101,0,пресс
1775165840767,349,-158,0,пресс
1775165840767,349,-289,0,пресс
1775165840768,349,-225,0,пресс
1775165840769,349,-106,0,пресс
1775165840770,349,-106,0,пресс
1775165840770,349,-84,0,пресс
1775165840770,349,-64,0,пресс
1775165840771,349,-131,0,пресс
1775165840771,349,-180,0,пресс
1775165840772,349,-146,0,пресс
1775165840772,349,-183,0,пресс
1775165840773,349,-284,0,пресс
1775165840773,349,-275,0,пресс
1775165840774,349,-205,0,пресс
1775165840774,349,-205,0,пресс
1775165840775,349,-282,0,пресс
1775165840775,349,-218,0,пресс
1775165840776,349,29,0,пресс
1775165840776,349,-2,0,пресс
1775165840776,349,-359,0,пресс
1775165840777,349,-441,0,пресс
1775165840777,349,-215,0,пресс
1775165840778,349,-158,0,пресс
1775165840778,349,-203,0,пресс
1775165840779,349,-131,0,пресс
1775165840779,349,-141,0,пресс
1775165840780,349,-173,0,пресс
1775165840780,349,79,0,пресс
1775165840780,349,401,0,пресс
1775165840781,349,346,0,пресс
1775165840781,349,-61,0,пресс
1775165840782,349,-423,0,пресс
1775165840782,349,-441,0,пресс
1775165840783,349,-193,0,пресс
1775165840783,349,-66,0,пресс
1775165840783,349,-225,0,пресс
1775165840784,349,-346,0,пресс
1775165841010,349,-346,0,пресс
1775165841011,348,-346,0,пресс
1775165841012,347,-346,0,пресс
1775165841012,347,-346,0,пресс
1775165841013,347,-346,0,пресс
1775165841014,348,-346,0,пресс
1775165841015,348,-346,0,пресс
1775165841015,348,-346,0,пресс
1775165841016,345,-346,0,пресс
1775165841016,348,-346,0,пресс
1775165841284,348,-223,0,пресс
1775165841285,348,-27,0,пресс
1775165841286,348,-76,0,пресс
1775165841287,348,-203,0,пресс
1775165841288,348,-64,0,пресс
1775165841289,348,56,0,пресс
1775165841289,348,19,0,пресс
1775165841290,348,101,0,пресс
1775165841290,348,146,0,пресс
1775165841291,348,-12,0,пресс
1775165841291,348,-19,0,пресс
1775165841292,348,81,0,пресс
1775165841292,348,24,0,пресс
1775165841293,348,-14,0,пресс
1775165841293,348,123,0,пресс
1775165841294,348,247,0,пресс
1775165841294,348,79,0,пресс
1775165841294,348,-81,0,пресс
1775165841295,348,168,0,пресс
1775165841295,348,317,0,пресс
1775165841296,348,121,0,пресс
1775165841296,348,49,0,пресс
1775165841297,348,111,0,пресс
1775165841297,348,138,0,пресс
1775165841297,348,118,0,пресс
1775165841298,348,-29,0,пресс
1775165841298,348,-123,0,пресс
1775165841299,348,-42,0,пресс
1775165841299,348,-89,0,пресс
1775165841299,348,-227,0,пресс
1775165841300,348,-111,0,пресс
1775165841301,348,173,0,пресс
1775165841301,348,245,0,пресс
1775165841303,348,104,0,пресс
1775165841303,348,61,0,пресс
1775165841304,348,-111,0,пресс
1775165841304,348,-349,0,пресс
