time,gsr,ecg,interval,label
16:41:12.110000,345,-7,0,присед
16:41:12.211000,345,-7,0,присед
16:41:12.311000,344,-7,0,присед
16:41:12.412000,343,-7,0,присед
16:41:12.502000,343,-7,0,присед
16:41:12.547000,343,-56,0,присед
16:41:12.548000,343,-27,0,присед
16:41:12.549000,343,-22,0,присед
16:41:12.550000,343,-69,0,присед
16:41:12.551000,343,-106,0,присед
16:41:12.552000,343,-111,0,присед
16:41:12.553000,343,-128,0,присед
16:41:12.554000,343,-143,0,присед
16:41:12.555000,343,-128,0,присед
16:41:12.556000,343,-128,0,присед
16:41:12.557000,343,-143,0,присед
16:41:12.557000,343,-126,0,присед
16:41:12.559000,343,-103,0,присед
16:41:12.560000,343,-103,0,присед
16:41:12.561000,343,-118,0,присед
16:41:12.562000,343,-155,0,присед
16:41:12.564000,343,-170,0,присед
16:41:12.565000,343,-133,0,присед
16:41:12.566000,343,-141,0,присед
16:41:12.575000,343,-185,0,присед
16:41:12.576000,343,-185,0,присед
16:41:12.577000,343,-155,0,присед
16:41:12.578000,343,-148,0,присед
16:41:12.579000,343,-180,0,присед
16:41:12.580000,343,-244,0,присед
16:41:12.581000,343,-472,0,присед
16:41:12.581000,343,-781,0,присед
16:41:12.582000,343,-781,0,присед
16:41:12.583000,343,-638,0,присед
16:41:12.584000,343,-660,0,присед
16:41:12.585000,343,-665,0,присед
16:41:12.585000,343,-591,0,присед
16:41:12.586000,343,-571,0,присед
16:41:12.587000,343,-578,0,присед
16:41:12.588000,343,-549,0,присед
16:41:12.589000,343,-526,0,присед
16:41:12.590000,343,-522,0,присед
16:41:12.591000,343,-497,0,присед
16:41:12.592000,343,-460,0,присед
16:41:12.593000,343,-385,0,присед
16:41:12.594000,343,-118,0,присед
16:41:12.595000,343,210,0,присед
16:41:12.596000,343,230,0,присед
16:41:12.597000,343,103,0,присед
16:41:12.598000,343,128,0,присед
16:41:12.599000,343,155,0,присед
16:41:12.600000,343,111,0,присед
16:41:12.601000,343,101,0,присед
16:41:12.601000,343,108,0,присед
16:41:12.603000,343,74,0,присед
16:41:12.603000,343,-9,0,присед
16:41:12.604000,343,-47,0,присед
16:41:12.605000,343,153,0,присед
16:41:12.606000,343,638,0,присед
16:41:12.607000,343,1076,0,присед
16:41:12.608000,343,992,0,присед
16:41:12.609000,343,442,0,присед
16:41:12.610000,343,61,0,присед
16:41:12.611000,343,59,0,присед
16:41:12.612000,343,49,0,присед
16:41:12.613000,343,-37,0,присед
16:41:12.614000,343,-34,0,присед
16:41:12.615000,343,-27,0,присед
16:41:12.615000,343,-71,0,присед
16:41:12.616000,343,-79,0,присед
16:41:12.617000,343,-54,0,присед
16:41:12.618000,343,-51,0,присед
16:41:12.620000,343,-56,0,присед
16:41:12.621000,343,-66,0,присед
16:41:12.622000,343,-74,0,присед
16:41:12.623000,343,-64,0,присед
16:41:12.624000,343,-56,0,присед
16:41:12.624000,343,-34,0,присед
16:41:12.626000,343,-34,0,присед
16:41:12.703000,342,-34,0,присед
16:41:12.821000,342,-34,0,присед
16:41:12.896000,343,-34,0,присед
16:41:12.997000,344,-34,0,присед
16:41:13.086000,344,39,0,присед
16:41:13.087000,344,89,0,присед
16:41:13.088000,344,103,0,присед
16:41:13.089000,344,136,0,присед
16:41:13.090000,344,123,0,присед
16:41:13.091000,344,39,0,присед
16:41:13.092000,344,-7,0,присед
16:41:13.093000,344,61,0,присед
16:41:13.094000,344,84,0,присед
16:41:13.095000,344,-24,0,присед
16:41:13.096000,344,2,0,присед
16:41:13.097000,344,103,0,присед
16:41:13.098000,344,17,0,присед
16:41:13.098000,344,-14,0,присед
16:41:13.099000,344,69,0,присед
16:41:13.100000,344,39,0,присед
16:41:13.101000,344,4,0,присед
16:41:13.101000,344,14,0,присед
16:41:13.102000,344,-42,0,присед
16:41:13.103000,344,-91,0,присед
16:41:13.104000,344,-81,0,присед
16:41:13.104000,344,-79,0,присед
16:41:13.105000,344,-84,0,присед
16:41:13.106000,344,-74,0,присед
16:41:13.107000,344,-103,0,присед
16:41:13.108000,344,-356,0,присед
16:41:13.109000,344,-714,0,присед
16:41:13.110000,344,-697,0,присед
16:41:13.111000,344,-452,0,присед
16:41:13.112000,344,-420,0,присед
16:41:13.112000,344,-432,0,присед
16:41:13.113000,344,-351,0,присед
16:41:13.114000,344,-321,0,присед
16:41:13.115000,344,-336,0,присед
16:41:13.116000,344,-316,0,присед
16:41:13.116000,344,-306,0,присед
16:41:13.117000,344,-329,0,присед
16:41:13.118000,344,-333,0,присед
16:41:13.119000,344,-314,0,присед
16:41:13.119000,344,-291,0,присед
16:41:13.120000,344,-326,0,присед
16:41:13.121000,344,-430,0,присед
16:41:13.122000,344,-452,0,присед
16:41:13.123000,344,-383,0,присед
16:41:13.124000,344,-383,0,присед
16:41:13.125000,344,-415,0,присед
16:41:13.126000,344,-351,0,присед
16:41:13.127000,344,-121,0,присед
16:41:13.128000,344,222,0,присед
16:41:13.129000,344,329,0,присед
16:41:13.130000,344,173,0,присед
16:41:13.130000,344,101,0,присед
16:41:13.131000,344,-27,0,присед
16:41:13.132000,344,-333,0,присед
16:41:13.133000,344,-235,0,присед
16:41:13.134000,344,259,0,присед
16:41:13.135000,344,358,0,присед
16:41:13.136000,344,192,0,присед
16:41:13.137000,344,225,0,присед
16:41:13.137000,344,286,0,присед
16:41:13.138000,344,316,0,присед
16:41:13.139000,344,301,0,присед
16:41:13.140000,344,136,0,присед
16:41:13.141000,344,2,0,присед
16:41:13.143000,344,163,0,присед
16:41:13.144000,344,388,0,присед
16:41:13.145000,344,257,0,присед
16:41:13.146000,344,-128,0,присед
16:41:13.147000,344,-378,0,присед
16:41:13.148000,344,-408,0,присед
16:41:13.149000,344,-321,0,присед
16:41:13.149000,344,17,0,присед
16:41:13.150000,344,544,0,присед
16:41:13.152000,344,544,0,присед
16:41:13.212000,344,544,0,присед
16:41:13.312000,344,544,0,присед
16:41:13.411000,344,544,0,присед
16:41:13.556000,344,544,0,присед
16:41:13.607000,344,544,0,присед
16:41:13.626000,344,737,0,присед
16:41:13.627000,344,358,0,присед
16:41:13.628000,344,-148,0,присед
16:41:13.630000,344,-279,0,присед
16:41:13.630000,344,-232,0,присед
16:41:13.631000,344,-291,0,присед
16:41:13.632000,344,-319,0,присед
16:41:13.633000,344,-274,0,присед
16:41:13.634000,344,-274,0,присед
16:41:13.634000,344,-284,0,присед
16:41:13.635000,344,-262,0,присед
16:41:13.636000,344,-249,0,присед
16:41:13.637000,344,-254,0,присед
16:41:13.638000,344,-247,0,присед
16:41:13.638000,344,-235,0,присед
16:41:13.639000,344,-225,0,присед
16:41:13.640000,344,-212,0,присед
16:41:13.641000,344,-205,0,присед
16:41:13.642000,344,-205,0,присед
16:41:13.643000,344,-192,0,присед
16:41:13.645000,344,-183,0,присед
16:41:13.646000,344,-180,0,присед
16:41:13.647000,344,-170,0,присед
16:41:13.648000,344,-145,0,присед
16:41:13.648000,344,-103,0,присед
16:41:13.649000,344,-44,0,присед
16:41:13.650000,344,86,0,присед
16:41:13.650000,344,299,0,присед
16:41:13.651000,344,418,0,присед
16:41:13.652000,344,371,0,присед
16:41:13.653000,344,343,0,присед
16:41:13.654000,344,368,0,присед
16:41:13.654000,344,341,0,присед
16:41:13.655000,344,291,0,присед
16:41:13.656000,344,259,0,присед
16:41:13.657000,344,217,0,присед
16:41:13.657000,344,173,0,присед
16:41:13.658000,344,150,0,присед
16:41:13.659000,344,145,0,присед
16:41:13.660000,344,150,0,присед
16:41:13.661000,344,138,0,присед
16:41:13.662000,344,91,0,присед
16:41:13.662000,344,51,0,присед
16:41:13.663000,344,54,0,присед
16:41:13.664000,344,66,0,присед
16:41:13.665000,344,51,0,присед
16:41:13.665000,344,69,0,присед
16:41:13.666000,344,94,0,присед
16:41:13.667000,344,94,0,присед
16:41:13.668000,344,178,0,присед
16:41:13.669000,344,274,0,присед
16:41:13.669000,344,222,0,присед
16:41:13.670000,344,153,0,присед
16:41:13.671000,344,220,0,присед
16:41:13.672000,344,257,0,присед
16:41:13.673000,344,188,0,присед
16:41:13.673000,344,190,0,присед
16:41:13.674000,344,249,0,присед
16:41:13.675000,344,242,0,присед
16:41:13.676000,344,210,0,присед
16:41:13.677000,344,259,0,присед
16:41:13.678000,344,415,0,присед
16:41:13.678000,344,514,0,присед
16:41:13.679000,344,333,0,присед
16:41:13.680000,344,-17,0,присед
16:41:13.681000,344,-192,0,присед
16:41:13.682000,344,-54,0,присед
16:41:13.682000,344,19,0,присед
16:41:13.683000,344,-22,0,присед
16:41:13.684000,344,128,0,присед
16:41:13.684000,344,155,0,присед
16:41:13.685000,344,96,0,присед
16:41:13.686000,344,410,0,присед
16:41:13.706000,343,410,0,присед
16:41:13.805000,344,410,0,присед
16:41:13.923000,345,410,0,присед
16:41:13.998000,345,410,0,присед
16:41:14.098000,346,410,0,присед
16:41:14.198000,346,410,0,присед
16:41:14.210000,346,581,0,присед
16:41:14.211000,346,173,0,присед
16:41:14.212000,346,-205,0,присед
16:41:14.213000,346,-148,0,присед
16:41:14.215000,346,-76,0,присед
16:41:14.216000,346,-173,0,присед
16:41:14.216000,346,-220,0,присед
16:41:14.217000,346,-227,0,присед
16:41:14.218000,346,-180,0,присед
16:41:14.219000,346,-116,0,присед
16:41:14.220000,346,-47,0,присед
16:41:14.220000,346,143,0,присед
16:41:14.221000,346,423,0,присед
16:41:14.222000,346,749,0,присед
16:41:14.223000,346,873,0,присед
16:41:14.224000,346,420,0,присед
16:41:14.225000,346,-252,0,присед
16:41:14.226000,346,-393,0,присед
16:41:14.227000,346,-215,0,присед
16:41:14.228000,346,-269,0,присед
16:41:14.229000,346,-284,0,присед
16:41:14.229000,346,-158,0,присед
16:41:14.230000,346,-244,0,присед
16:41:14.231000,346,-254,0,присед
16:41:14.232000,346,-42,0,присед
16:41:14.233000,346,-215,0,присед
16:41:14.234000,346,-541,0,присед
16:41:14.234000,346,-442,0,присед
16:41:14.235000,346,-316,0,присед
16:41:14.236000,346,-200,0,присед
16:41:14.237000,346,163,0,присед
16:41:14.238000,346,101,0,присед
16:41:14.239000,346,-457,0,присед
16:41:14.240000,346,-539,0,присед
16:41:14.241000,346,-282,0,присед
16:41:14.242000,346,-306,0,присед
16:41:14.243000,346,-376,0,присед
16:41:14.244000,346,-316,0,присед
16:41:14.245000,346,-289,0,присед
16:41:14.246000,346,-294,0,присед
16:41:14.246000,346,-259,0,присед
16:41:14.247000,346,-212,0,присед
16:41:14.248000,346,-180,0,присед
16:41:14.249000,346,-158,0,присед
16:41:14.249000,346,-143,0,присед
16:41:14.250000,346,-126,0,присед
16:41:14.251000,346,-106,0,присед
16:41:14.252000,346,-128,0,присед
16:41:14.253000,346,-185,0,присед
16:41:14.255000,346,-230,0,присед
16:41:14.256000,346,-274,0,присед
16:41:14.257000,346,-294,0,присед
16:41:14.258000,346,-294,0,присед
16:41:14.259000,346,-296,0,присед
16:41:14.260000,346,-291,0,присед
16:41:14.261000,346,-284,0,присед
16:41:14.262000,346,-282,0,присед
16:41:14.263000,346,-282,0,присед
16:41:14.264000,346,-272,0,присед
16:41:14.265000,346,-247,0,присед
16:41:14.266000,346,-227,0,присед
16:41:14.267000,346,-215,0,присед
16:41:14.268000,346,-207,0,присед
16:41:14.269000,346,-192,0,присед
16:41:14.270000,346,-180,0,присед
16:41:14.271000,346,-178,0,присед
16:41:14.272000,346,-175,0,присед
16:41:14.273000,346,-148,0,присед
16:41:14.274000,346,-126,0,присед
16:41:14.274000,346,-126,0,присед
16:41:14.275000,346,-141,0,присед
16:41:14.276000,346,-155,0,присед
16:41:14.277000,346,-128,0,присед
16:41:14.315000,345,-128,0,присед
16:41:14.392000,343,-128,0,присед
16:41:14.515000,341,-128,0,присед
16:41:14.615000,341,-128,0,присед
16:41:14.707000,339,-128,0,присед
16:41:14.750000,339,-81,0,присед
16:41:14.751000,339,-76,0,присед
16:41:14.753000,339,-84,0,присед
16:41:14.754000,339,-69,0,присед
16:41:14.755000,339,-49,0,присед
16:41:14.756000,339,-49,0,присед
16:41:14.757000,339,-42,0,присед
16:41:14.758000,339,-12,0,присед
16:41:14.760000,339,9,0,присед
16:41:14.761000,339,12,0,присед
16:41:14.762000,339,2,0,присед
16:41:14.763000,339,-101,0,присед
16:41:14.764000,339,-296,0,присед
16:41:14.766000,339,-237,0,присед
16:41:14.767000,339,143,0,присед
16:41:14.768000,339,366,0,присед
16:41:14.770000,339,296,0,присед
16:41:14.771000,339,185,0,присед
16:41:14.772000,339,341,0,присед
16:41:14.773000,339,865,0,присед
16:41:14.777000,339,1335,0,присед
16:41:14.778000,339,1642,0,присед
16:41:14.779000,339,1818,0,присед
16:41:14.781000,339,1494,0,присед
16:41:14.782000,339,969,0,присед
16:41:14.783000,339,865,0,присед
16:41:14.786000,339,940,0,присед
16:41:14.787000,339,883,0,присед
16:41:14.788000,339,915,0,присед
16:41:14.789000,339,974,0,присед
16:41:14.790000,339,895,0,присед
16:41:14.791000,339,697,0,присед
16:41:14.792000,339,361,0,присед
16:41:14.793000,339,197,0,присед
16:41:14.794000,339,346,0,присед
16:41:14.795000,339,423,0,присед
16:41:14.796000,339,410,0,присед
16:41:14.797000,339,531,0,присед
16:41:14.798000,339,690,0,присед
16:41:14.798000,339,732,0,присед
16:41:14.799000,339,494,0,присед
16:41:14.799000,339,-61,0,присед
16:41:14.800000,339,-338,0,присед
16:41:14.801000,339,-61,0,присед
16:41:14.801000,339,205,0,присед
16:41:14.802000,339,244,0,присед
16:41:14.802000,339,277,0,присед
16:41:14.803000,339,348,0,присед
16:41:14.803000,339,277,0,присед
16:41:14.804000,339,405,0,присед
16:41:14.805000,339,1024,0,присед
16:41:14.805000,339,1279,0,присед
16:41:14.805000,339,665,0,присед
16:41:14.806000,339,249,0,присед
16:41:14.807000,339,744,0,присед
16:41:14.807000,339,893,0,присед
16:41:14.808000,339,202,0,присед
16:41:14.808000,339,-71,0,присед
16:41:14.809000,339,121,0,присед
16:41:14.810000,339,71,0,присед
16:41:14.811000,339,17,0,присед
16:41:14.812000,339,252,0,присед
16:41:14.813000,339,484,0,присед
16:41:14.814000,339,514,0,присед
16:41:14.815000,339,633,0,присед
16:41:14.815000,339,752,0,присед
16:41:14.816000,339,935,0,присед
16:41:14.816000,339,1627,0,присед
16:41:14.817000,339,1744,0,присед
16:41:14.817000,339,987,0,присед
16:41:14.818000,339,1214,0,присед
16:41:14.818000,339,1459,0,присед
16:41:14.819000,339,188,0,присед
16:41:14.820000,336,188,0,присед
16:41:14.904000,332,188,0,присед
16:41:15.026000,330,188,0,присед
16:41:15.102000,328,188,0,присед
16:41:15.202000,325,188,0,присед
16:41:15.301000,323,188,0,присед
16:41:15.335000,323,-138,0,присед
16:41:15.337000,323,1276,0,присед
16:41:15.338000,323,2142,0,присед
16:41:15.339000,323,1937,0,присед
16:41:15.340000,323,1845,0,присед
16:41:15.341000,323,1919,0,присед
16:41:15.342000,323,1125,0,присед
16:41:15.343000,323,304,0,присед
16:41:15.344000,323,564,0,присед
16:41:15.345000,323,225,0,присед
16:41:15.346000,323,-794,0,присед
16:41:15.347000,323,-395,0,присед
16:41:15.348000,323,-56,0,присед
16:41:15.349000,323,-1024,0,присед
16:41:15.350000,323,-1083,0,присед
16:41:15.351000,323,-507,0,присед
16:41:15.352000,323,-784,0,присед
16:41:15.352000,323,-992,0,присед
16:41:15.353000,323,-759,0,присед
16:41:15.354000,323,-776,0,присед
16:41:15.355000,323,-658,0,присед
16:41:15.355000,323,-227,0,присед
16:41:15.356000,323,-215,0,присед
16:41:15.357000,323,-86,0,присед
16:41:15.358000,323,403,0,присед
16:41:15.359000,323,390,0,присед
16:41:15.360000,323,418,0,присед
16:41:15.361000,323,749,0,присед
16:41:15.362000,323,667,0,присед
16:41:15.363000,323,460,0,присед
16:41:15.364000,323,420,0,присед
16:41:15.365000,323,158,0,присед
16:41:15.366000,323,-591,0,присед
16:41:15.366000,323,-1118,0,присед
16:41:15.367000,323,-967,0,присед
16:41:15.368000,323,-1053,0,присед
16:41:15.369000,323,-1318,0,присед
16:41:15.369000,323,-1053,0,присед
16:41:15.370000,323,-497,0,присед
16:41:15.371000,323,-522,0,присед
16:41:15.372000,323,-915,0,присед
16:41:15.373000,323,-479,0,присед
16:41:15.374000,323,-141,0,присед
16:41:15.374000,323,-128,0,присед
16:41:15.375000,323,131,0,присед
16:41:15.377000,323,-717,0,присед
16:41:15.378000,323,-1570,0,присед
16:41:15.379000,323,-883,0,присед
16:41:15.380000,323,-116,0,присед
16:41:15.380000,323,188,0,присед
16:41:15.381000,323,235,0,присед
16:41:15.382000,323,-64,0,присед
16:41:15.383000,323,64,0,присед
16:41:15.384000,323,492,0,присед
16:41:15.385000,323,465,0,присед
16:41:15.385000,323,324,0,присед
16:41:15.386000,323,274,0,присед
16:41:15.387000,323,195,0,присед
16:41:15.388000,323,-98,0,присед
16:41:15.389000,323,-804,0,присед
16:41:15.390000,323,-1155,0,присед
16:41:15.391000,323,-922,0,присед
16:41:15.392000,323,-799,0,присед
16:41:15.393000,323,-395,0,присед
16:41:15.394000,323,145,0,присед
16:41:15.395000,323,-155,0,присед
16:41:15.395000,323,-826,0,присед
16:41:15.396000,323,-831,0,присед
16:41:15.397000,323,-561,0,присед
16:41:15.398000,323,-823,0,присед
16:41:15.398000,323,-1066,0,присед
16:41:15.399000,323,-1044,0,присед
16:41:15.400000,323,-1147,0,присед
16:41:15.401000,320,-1147,0,присед
16:41:15.496000,316,-1147,0,присед
16:41:15.594000,315,-1147,0,присед
16:41:15.694000,313,-1147,0,присед
16:41:15.810000,310,-1147,0,присед
16:41:15.876000,310,-1105,0,присед
16:41:15.877000,310,-937,0,присед
16:41:15.878000,310,-930,0,присед
16:41:15.879000,310,-940,0,присед
16:41:15.880000,310,-851,0,присед
16:41:15.881000,310,-714,0,присед
16:41:15.882000,310,-534,0,присед
16:41:15.883000,310,-452,0,присед
16:41:15.884000,310,-544,0,присед
16:41:15.884000,310,-690,0,присед
16:41:15.885000,310,-692,0,присед
16:41:15.886000,310,-393,0,присед
16:41:15.887000,310,-113,0,присед
16:41:15.888000,310,-118,0,присед
16:41:15.889000,310,-158,0,присед
16:41:15.890000,310,-153,0,присед
16:41:15.890000,310,-217,0,присед
16:41:15.891000,310,-205,0,присед
16:41:15.892000,310,-76,0,присед
16:41:15.893000,310,-54,0,присед
16:41:15.894000,310,-185,0,присед
16:41:15.895000,310,-351,0,присед
16:41:15.896000,310,-556,0,присед
16:41:15.896000,310,-714,0,присед
16:41:15.897000,310,-601,0,присед
16:41:15.898000,310,-383,0,присед
16:41:15.899000,310,-319,0,присед
16:41:15.900000,310,-254,0,присед
16:41:15.901000,310,-175,0,присед
16:41:15.901000,310,-232,0,присед
16:41:15.901000,310,-217,0,присед
16:41:15.902000,310,96,0,присед
16:41:15.902000,310,541,0,присед
16:41:15.903000,310,727,0,присед
16:41:15.903000,310,333,0,присед
16:41:15.904000,310,-380,0,присед
16:41:15.904000,310,-710,0,присед
16:41:15.904000,310,-620,0,присед
16:41:15.905000,310,-625,0,присед
16:41:15.906000,310,-705,0,присед
16:41:15.906000,310,-660,0,присед
16:41:15.907000,310,-603,0,присед
16:41:15.907000,310,-603,0,присед
16:41:15.908000,310,-578,0,присед
16:41:15.909000,310,-539,0,присед
16:41:15.910000,310,-522,0,присед
16:41:15.910000,310,-509,0,присед
16:41:15.911000,310,-479,0,присед
16:41:15.911000,310,-452,0,присед
16:41:15.912000,310,-435,0,присед
16:41:15.913000,310,-413,0,присед
16:41:15.913000,310,-378,0,присед
16:41:15.913000,310,-333,0,присед
16:41:15.914000,310,-259,0,присед
16:41:15.914000,310,-76,0,присед
16:41:15.915000,310,269,0,присед
16:41:15.915000,310,363,0,присед
16:41:15.916000,310,-202,0,присед
16:41:15.916000,310,-663,0,присед
16:41:15.916000,310,-435,0,присед
16:41:15.917000,310,-262,0,присед
16:41:15.917000,310,-385,0,присед
16:41:15.918000,310,-348,0,присед
16:41:15.918000,310,-244,0,присед
16:41:15.918000,310,-267,0,присед
16:41:15.919000,310,-291,0,присед
16:41:15.919000,310,-294,0,присед
16:41:15.920000,310,-338,0,присед
16:41:15.920000,310,-380,0,присед
16:41:15.921000,310,-395,0,присед
16:41:15.921000,310,-415,0,присед
16:41:15.921000,310,-427,0,присед
16:41:15.922000,310,-410,0,присед
16:41:15.923000,311,-410,0,присед
16:41:16.011000,310,-410,0,присед
16:41:16.128000,309,-410,0,присед
16:41:16.204000,308,-410,0,присед
16:41:16.307000,306,-410,0,присед
16:41:16.406000,305,-410,0,присед
16:41:16.462000,305,-395,0,присед
16:41:16.463000,305,-400,0,присед
16:41:16.464000,305,-395,0,присед
16:41:16.465000,305,-378,0,присед
16:41:16.465000,305,-368,0,присед
16:41:16.466000,305,-358,0,присед
16:41:16.467000,305,-351,0,присед
16:41:16.468000,305,-348,0,присед
16:41:16.469000,305,-326,0,присед
16:41:16.470000,305,-299,0,присед
16:41:16.471000,305,-279,0,присед
16:41:16.472000,305,-242,0,присед
16:41:16.473000,305,-202,0,присед
16:41:16.474000,305,-215,0,присед
16:41:16.474000,305,-252,0,присед
16:41:16.475000,305,-277,0,присед
16:41:16.477000,305,-309,0,присед
16:41:16.478000,305,-324,0,присед
16:41:16.479000,305,-324,0,присед
16:41:16.480000,305,-363,0,присед
16:41:16.481000,305,-408,0,присед
16:41:16.482000,305,-393,0,присед
16:41:16.483000,305,-358,0,присед
16:41:16.484000,305,-351,0,присед
16:41:16.485000,305,-348,0,присед
16:41:16.486000,305,-338,0,присед
16:41:16.486000,305,-324,0,присед
16:41:16.487000,305,-311,0,присед
16:41:16.488000,305,-301,0,присед
16:41:16.489000,305,-282,0,присед
16:41:16.490000,305,-259,0,присед
16:41:16.491000,305,-257,0,присед
16:41:16.492000,305,-262,0,присед
16:41:16.492000,305,-254,0,присед
16:41:16.493000,305,-239,0,присед
16:41:16.494000,305,-235,0,присед
16:41:16.494000,305,-232,0,присед
16:41:16.495000,305,-220,0,присед
16:41:16.496000,305,-210,0,присед
16:41:16.497000,305,-212,0,присед
16:41:16.498000,305,-215,0,присед
16:41:16.499000,305,-220,0,присед
16:41:16.500000,305,-222,0,присед
16:41:16.501000,305,-212,0,присед
16:41:16.502000,305,-197,0,присед
16:41:16.503000,305,-200,0,присед
16:41:16.504000,305,-200,0,присед
16:41:16.506000,305,-175,0,присед
16:41:16.507000,305,-160,0,присед
16:41:16.508000,305,-168,0,присед
16:41:16.509000,305,-160,0,присед
16:41:16.511000,305,-155,0,присед
16:41:16.512000,305,-170,0,присед
16:41:16.513000,305,-178,0,присед
16:41:16.514000,305,-173,0,присед
16:41:16.515000,305,-185,0,присед
16:41:16.516000,305,-202,0,присед
16:41:16.517000,305,-244,0,присед
16:41:16.518000,305,-346,0,присед
16:41:16.519000,305,-373,0,присед
16:41:16.520000,305,-98,0,присед
16:41:16.521000,305,450,0,присед
16:41:16.522000,305,848,0,присед
16:41:16.523000,305,663,0,присед
16:41:16.525000,305,96,0,присед
16:41:16.526000,305,-212,0,присед
16:41:16.527000,305,-200,0,присед
16:41:16.528000,305,-239,0,присед
16:41:16.529000,305,-301,0,присед
16:41:16.530000,305,-165,0,присед
16:41:16.531000,305,-9,0,присед
16:41:16.532000,305,98,0,присед
16:41:16.533000,305,304,0,присед
16:41:16.534000,304,304,0,присед
16:41:16.597000,301,304,0,присед
16:41:16.698000,299,304,0,присед
16:41:16.798000,292,304,0,присед
16:41:16.912000,293,304,0,присед
16:41:17.011000,296,304,0,присед
16:41:17.046000,296,393,0,присед
16:41:17.047000,296,415,0,присед
16:41:17.048000,296,489,0,присед
16:41:17.048000,296,423,0,присед
16:41:17.049000,296,331,0,присед
16:41:17.050000,296,336,0,присед
16:41:17.051000,296,289,0,присед
16:41:17.052000,296,227,0,присед
16:41:17.053000,296,244,0,присед
16:41:17.053000,296,242,0,присед
16:41:17.054000,296,190,0,присед
16:41:17.055000,296,175,0,присед
16:41:17.056000,296,173,0,присед
16:41:17.057000,296,150,0,присед
16:41:17.057000,296,133,0,присед
16:41:17.058000,296,118,0,присед
16:41:17.059000,296,101,0,присед
16:41:17.060000,296,74,0,присед
16:41:17.062000,296,42,0,присед
16:41:17.063000,296,24,0,присед
16:41:17.063000,296,7,0,присед
16:41:17.064000,296,-32,0,присед
16:41:17.065000,296,-98,0,присед
16:41:17.066000,296,-165,0,присед
16:41:17.066000,296,-227,0,присед
16:41:17.067000,296,-388,0,присед
16:41:17.068000,296,-687,0,присед
16:41:17.069000,296,-898,0,присед
16:41:17.070000,296,-833,0,присед
16:41:17.070000,296,-608,0,присед
16:41:17.071000,296,-373,0,присед
16:41:17.072000,296,-267,0,присед
16:41:17.073000,296,-329,0,присед
16:41:17.074000,296,-432,0,присед
16:41:17.074000,296,-519,0,присед
16:41:17.075000,296,-685,0,присед
16:41:17.076000,296,-895,0,присед
16:41:17.078000,296,-927,0,присед
16:41:17.079000,296,-784,0,присед
16:41:17.080000,296,-672,0,присед
16:41:17.081000,296,-650,0,присед
16:41:17.082000,296,-742,0,присед
16:41:17.083000,296,-940,0,присед
16:41:17.084000,296,-1006,0,присед
16:41:17.085000,296,-932,0,присед
16:41:17.086000,296,-925,0,присед
16:41:17.087000,296,-945,0,присед
16:41:17.088000,296,-898,0,присед
16:41:17.089000,296,-858,0,присед
16:41:17.090000,296,-855,0,присед
16:41:17.091000,296,-878,0,присед
16:41:17.092000,296,-902,0,присед
16:41:17.093000,296,-883,0,присед
16:41:17.095000,296,-828,0,присед
16:41:17.096000,296,-816,0,присед
16:41:17.097000,296,-868,0,присед
16:41:17.098000,296,-900,0,присед
16:41:17.099000,296,-907,0,присед
16:41:17.100000,296,-927,0,присед
16:41:17.101000,296,-917,0,присед
16:41:17.102000,296,-912,0,присед
16:41:17.104000,296,-954,0,присед
16:41:17.105000,296,-972,0,присед
16:41:17.106000,296,-940,0,присед
16:41:17.107000,296,-893,0,присед
16:41:17.108000,296,-836,0,присед
16:41:17.109000,296,-791,0,присед
16:41:17.110000,296,-789,0,присед
16:41:17.112000,296,-808,0,присед
16:41:17.113000,296,-796,0,присед
16:41:17.114000,296,-737,0,присед
16:41:17.115000,296,-682,0,присед
16:41:17.116000,296,-655,0,присед
16:41:17.117000,293,-655,0,присед
16:41:17.231000,290,-655,0,присед
16:41:17.306000,290,-655,0,присед
16:41:17.407000,289,-655,0,присед
16:41:17.507000,289,-655,0,присед
16:41:17.540000,289,-677,0,присед
16:41:17.542000,289,-841,0,присед
16:41:17.543000,289,-962,0,присед
16:41:17.544000,289,-885,0,присед
16:41:17.545000,289,-870,0,присед
16:41:17.546000,289,-890,0,присед
16:41:17.546000,289,-821,0,присед
16:41:17.547000,289,-875,0,присед
16:41:17.548000,289,-925,0,присед
16:41:17.549000,289,-625,0,присед
16:41:17.550000,289,-136,0,присед
16:41:17.551000,289,103,0,присед
16:41:17.552000,289,-175,0,присед
16:41:17.553000,289,-722,0,присед
16:41:17.554000,289,-945,0,присед
16:41:17.555000,289,-737,0,присед
16:41:17.555000,289,-564,0,присед
16:41:17.556000,289,-677,0,присед
16:41:17.557000,289,-813,0,присед
16:41:17.558000,289,-789,0,присед
16:41:17.558000,289,-744,0,присед
16:41:17.560000,289,-717,0,присед
16:41:17.561000,289,-719,0,присед
16:41:17.562000,289,-781,0,присед
16:41:17.563000,289,-806,0,присед
16:41:17.564000,289,-816,0,присед
16:41:17.565000,289,-717,0,присед
16:41:17.566000,289,-603,0,присед
16:41:17.567000,289,-804,0,присед
16:41:17.567000,289,-752,0,присед
16:41:17.568000,289,-143,0,присед
16:41:17.569000,289,150,0,присед
16:41:17.570000,289,-4,0,присед
16:41:17.571000,289,-106,0,присед
16:41:17.571000,289,-225,0,присед
16:41:17.572000,289,-316,0,присед
16:41:17.573000,289,-336,0,присед
16:41:17.574000,289,-559,0,присед
16:41:17.575000,289,-690,0,присед
16:41:17.576000,289,-499,0,присед
16:41:17.577000,289,-435,0,присед
16:41:17.578000,289,-427,0,присед
16:41:17.580000,289,-217,0,присед
16:41:17.580000,289,-168,0,присед
16:41:17.581000,289,-351,0,присед
16:41:17.582000,289,-395,0,присед
16:41:17.583000,289,-341,0,присед
16:41:17.583000,289,-395,0,присед
16:41:17.584000,289,-467,0,присед
16:41:17.585000,289,-440,0,присед
16:41:17.585000,289,-368,0,присед
16:41:17.586000,289,-623,0,присед
16:41:17.587000,289,-1197,0,присед
16:41:17.588000,289,-1291,0,присед
16:41:17.589000,289,-979,0,присед
16:41:17.589000,289,-808,0,присед
16:41:17.590000,289,-450,0,присед
16:41:17.591000,289,-9,0,присед
16:41:17.591000,289,-106,0,присед
16:41:17.592000,289,-291,0,присед
16:41:17.593000,289,-237,0,присед
16:41:17.594000,289,-650,0,присед
16:41:17.595000,289,-1279,0,присед
16:41:17.596000,289,-1375,0,присед
16:41:17.596000,289,-1328,0,присед
16:41:17.597000,289,-1385,0,присед
16:41:17.598000,289,-1308,0,присед
16:41:17.599000,289,-1241,0,присед
16:41:17.600000,289,-1234,0,присед
16:41:17.601000,289,-1209,0,присед
16:41:17.601000,289,-1209,0,присед
16:41:17.602000,289,-1187,0,присед
16:41:17.603000,289,-1175,0,присед
16:41:17.604000,289,-1175,0,присед
16:41:17.703000,288,-1175,0,присед
16:41:17.806000,283,-1175,0,присед
16:41:17.908000,284,-1175,0,присед
16:41:18.013000,286,-1175,0,присед
16:41:18.112000,286,-1175,0,присед
16:41:18.170000,286,-1197,0,присед
16:41:18.172000,286,-1128,0,присед
16:41:18.173000,286,-1076,0,присед
16:41:18.175000,286,-1105,0,присед
16:41:18.176000,286,-1076,0,присед
16:41:18.177000,286,-1029,0,присед
16:41:18.178000,286,-1021,0,присед
16:41:18.178000,286,-1036,0,присед
16:41:18.179000,286,-1034,0,присед
16:41:18.180000,286,-977,0,присед
16:41:18.181000,286,-898,0,присед
16:41:18.182000,286,-823,0,присед
16:41:18.182000,286,-804,0,присед
16:41:18.183000,286,-848,0,присед
16:41:18.184000,286,-781,0,присед
16:41:18.184000,286,-653,0,присед
16:41:18.185000,286,-687,0,присед
16:41:18.186000,286,-883,0,присед
16:41:18.187000,286,-937,0,присед
16:41:18.188000,286,-603,0,присед
16:41:18.188000,286,-551,0,присед
16:41:18.189000,286,-1006,0,присед
16:41:18.190000,286,-920,0,присед
16:41:18.191000,286,-385,0,присед
16:41:18.192000,286,-155,0,присед
16:41:18.193000,286,-61,0,присед
16:41:18.194000,286,-269,0,присед
16:41:18.195000,286,-858,0,присед
16:41:18.196000,286,-1068,0,присед
16:41:18.197000,286,-898,0,присед
16:41:18.198000,286,-920,0,присед
16:41:18.199000,286,-1016,0,присед
16:41:18.200000,286,-974,0,присед
16:41:18.201000,286,-925,0,присед
16:41:18.201000,286,-848,0,присед
16:41:18.202000,286,-566,0,присед
16:41:18.203000,286,-504,0,присед
16:41:18.204000,286,-905,0,присед
16:41:18.205000,286,-999,0,присед
16:41:18.206000,286,-769,0,присед
16:41:18.206000,286,-789,0,присед
16:41:18.207000,286,-870,0,присед
16:41:18.208000,286,-816,0,присед
16:41:18.209000,286,-776,0,присед
16:41:18.210000,286,-779,0,присед
16:41:18.211000,286,-724,0,присед
16:41:18.212000,286,-648,0,присед
16:41:18.213000,286,-638,0,присед
16:41:18.214000,286,-618,0,присед
16:41:18.214000,286,-544,0,присед
16:41:18.215000,286,-517,0,присед
16:41:18.216000,286,-509,0,присед
16:41:18.217000,286,-462,0,присед
16:41:18.218000,286,-430,0,присед
16:41:18.218000,286,-403,0,присед
16:41:18.219000,286,-363,0,присед
16:41:18.220000,286,-371,0,присед
16:41:18.221000,286,-418,0,присед
16:41:18.222000,286,-420,0,присед
16:41:18.222000,286,-440,0,присед
16:41:18.223000,286,-549,0,присед
16:41:18.224000,286,-598,0,присед
16:41:18.225000,286,-564,0,присед
16:41:18.226000,286,-593,0,присед
16:41:18.226000,286,-650,0,присед
16:41:18.227000,286,-653,0,присед
16:41:18.228000,286,-633,0,присед
16:41:18.229000,286,-620,0,присед
16:41:18.230000,286,-623,0,присед
16:41:18.231000,286,-616,0,присед
16:41:18.231000,286,-598,0,присед
16:41:18.232000,286,-591,0,присед
16:41:18.233000,286,-593,0,присед
16:41:18.234000,285,-593,0,присед
16:41:18.333000,288,-593,0,присед
16:41:18.409000,287,-593,0,присед
16:41:18.512000,285,-593,0,присед
16:41:18.611000,283,-593,0,присед
16:41:18.701000,284,-593,0,присед
16:41:18.800000,284,-583,0,присед
16:41:18.801000,284,-564,0,присед
16:41:18.803000,284,-546,0,присед
16:41:18.804000,284,-541,0,присед
16:41:18.805000,284,-539,0,присед
16:41:18.806000,284,-534,0,присед
16:41:18.807000,284,-526,0,присед
16:41:18.808000,284,-531,0,присед
16:41:18.809000,284,-531,0,присед
16:41:18.810000,284,-526,0,присед
16:41:18.811000,284,-519,0,присед
16:41:18.812000,284,-519,0,присед
16:41:18.813000,284,-526,0,присед
16:41:18.814000,284,-519,0,присед
16:41:18.815000,284,-497,0,присед
16:41:18.816000,284,-482,0,присед
16:41:18.817000,284,-465,0,присед
16:41:18.817000,284,-452,0,присед
16:41:18.818000,284,-418,0,присед
16:41:18.819000,284,-319,0,присед
16:41:18.820000,284,-314,0,присед
16:41:18.821000,284,-472,0,присед
16:41:18.821000,284,-492,0,присед
16:41:18.822000,284,-348,0,присед
16:41:18.823000,284,-286,0,присед
16:41:18.824000,284,-237,0,присед
16:41:18.825000,284,-235,0,присед
16:41:18.826000,284,-400,0,присед
16:41:18.826000,284,-482,0,присед
16:41:18.827000,284,-353,0,присед
16:41:18.828000,284,-69,0,присед
16:41:18.829000,284,363,0,присед
16:41:18.830000,284,744,0,присед
16:41:18.830000,284,598,0,присед
16:41:18.831000,284,-64,0,присед
16:41:18.832000,284,-403,0,присед
16:41:18.833000,284,-279,0,присед
16:41:18.833000,284,-284,0,присед
16:41:18.834000,284,-447,0,присед
16:41:18.835000,284,-546,0,присед
16:41:18.836000,284,-529,0,присед
16:41:18.836000,284,-479,0,присед
16:41:18.837000,284,-435,0,присед
16:41:18.838000,284,-351,0,присед
16:41:18.838000,284,-304,0,присед
16:41:18.839000,284,-373,0,присед
16:41:18.840000,284,-472,0,присед
16:41:18.841000,284,-497,0,присед
16:41:18.842000,284,-437,0,присед
16:41:18.843000,284,-324,0,присед
16:41:18.844000,284,-244,0,присед
16:41:18.844000,284,-267,0,присед
16:41:18.845000,284,-373,0,присед
16:41:18.846000,284,-445,0,присед
16:41:18.846000,284,-420,0,присед
16:41:18.847000,284,-398,0,присед
16:41:18.848000,284,-400,0,присед
16:41:18.849000,284,-363,0,присед
16:41:18.850000,284,-222,0,присед
16:41:18.851000,284,-94,0,присед
16:41:18.852000,284,-200,0,присед
16:41:18.853000,284,-306,0,присед
16:41:18.854000,284,-247,0,присед
16:41:18.854000,284,-247,0,присед
16:41:18.855000,284,-301,0,присед
16:41:18.856000,284,-311,0,присед
16:41:18.857000,284,-351,0,присед
16:41:18.858000,284,-388,0,присед
16:41:18.859000,284,-383,0,присед
16:41:18.860000,284,-398,0,присед
16:41:18.860000,284,-470,0,присед
16:41:18.861000,284,-507,0,присед
16:41:18.862000,284,-475,0,присед
16:41:18.863000,285,-475,0,присед
16:41:18.902000,287,-475,0,присед
16:41:19.003000,311,-475,0,присед
16:41:19.093000,284,-475,0,присед
16:41:19.194000,284,-475,0,присед
16:41:19.251000,284,-452,0,присед
16:41:19.252000,284,-462,0,присед
16:41:19.253000,284,-452,0,присед
16:41:19.253000,284,-418,0,присед
16:41:19.254000,284,-393,0,присед
16:41:19.255000,284,-383,0,присед
16:41:19.256000,284,-390,0,присед
16:41:19.257000,284,-395,0,присед
16:41:19.257000,284,-380,0,присед
16:41:19.258000,284,-366,0,присед
16:41:19.259000,284,-371,0,присед
16:41:19.260000,284,-361,0,присед
16:41:19.261000,284,-306,0,присед
16:41:19.262000,284,-272,0,присед
16:41:19.262000,284,-309,0,присед
16:41:19.263000,284,-343,0,присед
16:41:19.264000,284,-358,0,присед
16:41:19.265000,284,-361,0,присед
16:41:19.265000,284,-321,0,присед
16:41:19.266000,284,-294,0,присед
16:41:19.267000,284,-306,0,присед
16:41:19.268000,284,-311,0,присед
16:41:19.269000,284,-294,0,присед
16:41:19.271000,284,-286,0,присед
16:41:19.271000,284,-277,0,присед
16:41:19.272000,284,-254,0,присед
16:41:19.273000,284,-237,0,присед
16:41:19.274000,284,-232,0,присед
16:41:19.275000,284,-237,0,присед
16:41:19.276000,284,-242,0,присед
16:41:19.277000,284,-237,0,присед
16:41:19.278000,284,-222,0,присед
16:41:19.280000,284,-220,0,присед
16:41:19.281000,284,-225,0,присед
16:41:19.281000,284,-225,0,присед
16:41:19.282000,284,-254,0,присед
16:41:19.283000,284,-343,0,присед
16:41:19.284000,284,-343,0,присед
16:41:19.284000,284,-51,0,присед
16:41:19.285000,284,457,0,присед
16:41:19.286000,284,791,0,присед
16:41:19.287000,284,588,0,присед
16:41:19.288000,284,29,0,присед
16:41:19.289000,284,-259,0,присед
16:41:19.290000,284,-205,0,присед
16:41:19.290000,284,-227,0,присед
16:41:19.291000,284,-306,0,присед
16:41:19.292000,284,-264,0,присед
16:41:19.293000,284,-210,0,присед
16:41:19.293000,284,-212,0,присед
16:41:19.295000,284,-200,0,присед
16:41:19.295000,284,-192,0,присед
16:41:19.296000,284,-183,0,присед
16:41:19.297000,284,-131,0,присед
16:41:19.298000,284,-160,0,присед
16:41:19.298000,284,-249,0,присед
16:41:19.299000,284,-235,0,присед
16:41:19.300000,284,-180,0,присед
16:41:19.301000,284,-180,0,присед
16:41:19.302000,284,-170,0,присед
16:41:19.302000,284,-136,0,присед
16:41:19.303000,284,-138,0,присед
16:41:19.304000,284,-118,0,присед
16:41:19.305000,284,-56,0,присед
16:41:19.305000,284,-89,0,присед
16:41:19.306000,284,-133,0,присед
16:41:19.307000,284,-17,0,присед
16:41:19.307000,284,64,0,присед
16:41:19.308000,284,22,0,присед
16:41:19.309000,284,34,0,присед
16:41:19.310000,284,51,0,присед
16:41:19.311000,284,22,0,присед
16:41:19.311000,284,2,0,присед
16:41:19.313000,285,2,0,присед
16:41:19.394000,288,2,0,присед
16:41:19.507000,321,2,0,присед
16:41:19.606000,337,2,0,присед
16:41:19.706000,279,2,0,присед
16:41:19.803000,317,2,0,присед
16:41:19.836000,317,-32,0,присед
16:41:19.837000,317,-59,0,присед
16:41:19.838000,317,-64,0,присед
16:41:19.838000,317,-98,0,присед
16:41:19.839000,317,-143,0,присед
16:41:19.840000,317,-175,0,присед
16:41:19.841000,317,-242,0,присед
16:41:19.842000,317,-282,0,присед
16:41:19.842000,317,-254,0,присед
16:41:19.843000,317,-247,0,присед
16:41:19.844000,317,-249,0,присед
16:41:19.845000,317,-222,0,присед
16:41:19.846000,317,-145,0,присед
16:41:19.846000,317,-103,0,присед
16:41:19.847000,317,-217,0,присед
16:41:19.848000,317,-291,0,присед
16:41:19.849000,317,-217,0,присед
16:41:19.850000,317,-207,0,присед
16:41:19.850000,317,-277,0,присед
16:41:19.851000,317,-254,0,присед
16:41:19.852000,317,-220,0,присед
16:41:19.853000,317,-269,0,присед
16:41:19.854000,317,-274,0,присед
16:41:19.854000,317,-173,0,присед
16:41:19.855000,317,-178,0,присед
16:41:19.856000,317,-269,0,присед
16:41:19.857000,317,-225,0,присед
16:41:19.858000,317,-188,0,присед
16:41:19.858000,317,-282,0,присед
16:41:19.859000,317,-262,0,присед
16:41:19.860000,317,-180,0,присед
16:41:19.861000,317,-269,0,присед
16:41:19.862000,317,-267,0,присед
16:41:19.863000,317,-113,0,присед
16:41:19.864000,317,-247,0,присед
16:41:19.865000,317,-408,0,присед
16:41:19.866000,317,-230,0,присед
16:41:19.867000,317,-165,0,присед
16:41:19.867000,317,-286,0,присед
16:41:19.868000,317,-274,0,присед
16:41:19.869000,317,-284,0,присед
16:41:19.870000,317,-423,0,присед
16:41:19.870000,317,-405,0,присед
16:41:19.871000,317,-173,0,присед
16:41:19.872000,317,197,0,присед
16:41:19.872000,317,705,0,присед
16:41:19.873000,317,660,0,присед
16:41:19.874000,317,-136,0,присед
16:41:19.875000,317,-479,0,присед
16:41:19.876000,317,-215,0,присед
16:41:19.876000,317,-282,0,присед
16:41:19.877000,317,-522,0,присед
16:41:19.878000,317,-420,0,присед
16:41:19.879000,317,-235,0,присед
16:41:19.880000,317,-371,0,присед
16:41:19.880000,317,-556,0,присед
16:41:19.881000,317,-371,0,присед
16:41:19.882000,317,-232,0,присед
16:41:19.882000,317,-410,0,присед
16:41:19.883000,317,-423,0,присед
16:41:19.884000,317,-319,0,присед
16:41:19.884000,317,-398,0,присед
16:41:19.885000,317,-371,0,присед
16:41:19.886000,317,-282,0,присед
16:41:19.887000,317,-351,0,присед
16:41:19.888000,317,-363,0,присед
16:41:19.888000,317,-296,0,присед
16:41:19.889000,317,-309,0,присед
16:41:19.890000,317,-314,0,присед
16:41:19.891000,317,-259,0,присед
16:41:19.891000,317,-232,0,присед
16:41:19.892000,317,-227,0,присед
16:41:19.893000,317,-205,0,присед
16:41:19.907000,306,-205,0,присед
16:41:20.005000,282,-205,0,присед
16:41:20.107000,283,-205,0,присед
16:41:20.195000,280,-205,0,присед
16:41:20.294000,288,-205,0,присед
16:41:20.376000,288,-173,0,присед
16:41:20.377000,288,-141,0,присед
16:41:20.378000,288,-128,0,присед
16:41:20.379000,288,-131,0,присед
16:41:20.379000,288,-136,0,присед
16:41:20.381000,288,-173,0,присед
16:41:20.382000,288,-244,0,присед
16:41:20.383000,288,-289,0,присед
16:41:20.384000,288,-294,0,присед
16:41:20.385000,288,-319,0,присед
16:41:20.386000,288,-388,0,присед
16:41:20.386000,288,-405,0,присед
16:41:20.387000,288,-368,0,присед
16:41:20.388000,288,-373,0,присед
16:41:20.389000,288,-385,0,присед
16:41:20.390000,288,-368,0,присед
16:41:20.391000,288,-356,0,присед
16:41:20.391000,288,-361,0,присед
16:41:20.392000,288,-363,0,присед
16:41:20.394000,288,-356,0,присед
16:41:20.394000,288,-341,0,присед
16:41:20.395000,288,-336,0,присед
16:41:20.396000,288,-346,0,присед
16:41:20.397000,288,-351,0,присед
16:41:20.398000,288,-351,0,присед
16:41:20.398000,288,-366,0,присед
16:41:20.399000,288,-380,0,присед
16:41:20.400000,288,-385,0,присед
16:41:20.401000,288,-368,0,присед
16:41:20.402000,288,-336,0,присед
16:41:20.403000,288,-319,0,присед
16:41:20.404000,288,-331,0,присед
16:41:20.404000,288,-338,0,присед
16:41:20.405000,288,-336,0,присед
16:41:20.406000,288,-338,0,присед
16:41:20.407000,288,-351,0,присед
16:41:20.408000,288,-353,0,присед
16:41:20.409000,288,-338,0,присед
16:41:20.410000,288,-336,0,присед
16:41:20.410000,288,-358,0,присед
16:41:20.411000,288,-405,0,присед
16:41:20.412000,288,-489,0,присед
16:41:20.413000,288,-472,0,присед
16:41:20.413000,288,-168,0,присед
16:41:20.414000,288,333,0,присед
16:41:20.415000,288,630,0,присед
16:41:20.416000,288,361,0,присед
16:41:20.416000,288,-207,0,присед
16:41:20.417000,288,-418,0,присед
16:41:20.418000,288,-333,0,присед
16:41:20.419000,288,-390,0,присед
16:41:20.419000,288,-475,0,присед
16:41:20.420000,288,-432,0,присед
16:41:20.421000,288,-395,0,присед
16:41:20.421000,288,-420,0,присед
16:41:20.422000,288,-455,0,присед
16:41:20.423000,288,-435,0,присед
16:41:20.424000,288,-390,0,присед
16:41:20.424000,288,-371,0,присед
16:41:20.425000,288,-371,0,присед
16:41:20.426000,288,-363,0,присед
16:41:20.427000,288,-351,0,присед
16:41:20.427000,288,-343,0,присед
16:41:20.428000,288,-329,0,присед
16:41:20.429000,288,-311,0,присед
16:41:20.429000,288,-296,0,присед
16:41:20.430000,288,-279,0,присед
16:41:20.431000,288,-259,0,присед
16:41:20.431000,288,-237,0,присед
16:41:20.432000,288,-215,0,присед
16:41:20.433000,288,-170,0,присед
16:41:20.434000,288,-153,0,присед
16:41:20.434000,288,-173,0,присед
16:41:20.435000,280,-173,0,присед
16:41:20.494000,284,-173,0,присед
16:41:20.609000,282,-173,0,присед
16:41:20.709000,283,-173,0,присед
16:41:20.808000,283,-173,0,присед
16:41:20.906000,284,-173,0,присед
16:41:20.916000,284,-150,0,присед
16:41:20.917000,284,-113,0,присед
16:41:20.918000,284,-118,0,присед
16:41:20.919000,284,-128,0,присед
16:41:20.919000,284,-138,0,присед
16:41:20.920000,284,-173,0,присед
16:41:20.921000,284,-227,0,присед
16:41:20.922000,284,-284,0,присед
16:41:20.923000,284,-329,0,присед
16:41:20.924000,284,-356,0,присед
16:41:20.924000,284,-378,0,присед
16:41:20.925000,284,-378,0,присед
16:41:20.926000,284,-363,0,присед
16:41:20.927000,284,-358,0,присед
16:41:20.927000,284,-363,0,присед
16:41:20.928000,284,-368,0,присед
16:41:20.929000,284,-373,0,присед
16:41:20.930000,284,-373,0,присед
16:41:20.931000,284,-356,0,присед
16:41:20.932000,284,-338,0,присед
16:41:20.932000,284,-333,0,присед
16:41:20.933000,284,-333,0,присед
16:41:20.934000,284,-343,0,присед
16:41:20.934000,284,-353,0,присед
16:41:20.935000,284,-343,0,присед
16:41:20.936000,284,-333,0,присед
16:41:20.937000,284,-351,0,присед
16:41:20.938000,284,-348,0,присед
16:41:20.939000,284,-316,0,присед
16:41:20.939000,284,-301,0,присед
16:41:20.940000,284,-306,0,присед
16:41:20.941000,284,-299,0,присед
16:41:20.942000,284,-274,0,присед
16:41:20.943000,284,-267,0,присед
16:41:20.944000,284,-279,0,присед
16:41:20.946000,284,-272,0,присед
16:41:20.947000,284,-249,0,присед
16:41:20.948000,284,-244,0,присед
16:41:20.949000,284,-274,0,присед
16:41:20.950000,284,-366,0,присед
16:41:20.951000,284,-435,0,присед
16:41:20.952000,284,-272,0,присед
16:41:20.953000,284,183,0,присед
16:41:20.953000,284,667,0,присед
16:41:20.954000,284,737,0,присед
16:41:20.955000,284,257,0,присед
16:41:20.955000,284,-259,0,присед
16:41:20.956000,284,-338,0,присед
16:41:20.957000,284,-274,0,присед
16:41:20.958000,284,-363,0,присед
16:41:20.959000,284,-395,0,присед
16:41:20.959000,284,-341,0,присед
16:41:20.960000,284,-338,0,присед
16:41:20.961000,284,-348,0,присед
16:41:20.961000,284,-321,0,присед
16:41:20.962000,284,-304,0,присед
16:41:20.963000,284,-299,0,присед
16:41:20.963000,284,-289,0,присед
16:41:20.964000,284,-284,0,присед
16:41:20.965000,284,-277,0,присед
16:41:20.965000,284,-264,0,присед
16:41:20.966000,284,-267,0,присед
16:41:20.967000,284,-254,0,присед
16:41:20.967000,284,-222,0,присед
16:41:20.968000,284,-200,0,присед
16:41:20.969000,284,-192,0,присед
16:41:20.969000,284,-168,0,присед
16:41:20.970000,284,-138,0,присед
16:41:20.971000,284,-116,0,присед
16:41:20.971000,284,-91,0,присед
16:41:20.972000,284,-64,0,присед
16:41:20.973000,284,-54,0,присед
16:41:20.973000,284,-44,0,присед
16:41:21.007000,281,-44,0,присед
16:41:21.108000,324,-44,0,присед
16:41:21.208000,348,-44,0,присед
16:41:21.322000,433,-44,0,присед
16:41:21.397000,291,-44,0,присед
16:41:21.499000,282,-44,0,присед
16:41:21.598000,280,-44,0,присед
16:41:21.634000,280,-4,0,присед
16:41:21.636000,280,39,0,присед
16:41:21.637000,280,39,0,присед
16:41:21.638000,280,12,0,присед
16:41:21.638000,280,-9,0,присед
16:41:21.639000,280,-44,0,присед
16:41:21.641000,280,-76,0,присед
16:41:21.642000,280,-71,0,присед
16:41:21.643000,280,-51,0,присед
16:41:21.644000,280,-61,0,присед
16:41:21.645000,280,-98,0,присед
16:41:21.646000,280,-113,0,присед
16:41:21.647000,280,-111,0,присед
16:41:21.648000,280,-121,0,присед
16:41:21.649000,280,-123,0,присед
16:41:21.650000,280,-101,0,присед
16:41:21.651000,280,-69,0,присед
16:41:21.652000,280,-56,0,присед
16:41:21.653000,280,-84,0,присед
16:41:21.653000,280,-98,0,присед
16:41:21.654000,280,-74,0,присед
16:41:21.655000,280,-59,0,присед
16:41:21.656000,280,-71,0,присед
16:41:21.659000,280,-101,0,присед
16:41:21.661000,280,-111,0,присед
16:41:21.662000,280,-69,0,присед
16:41:21.663000,280,-17,0,присед
16:41:21.663000,280,-2,0,присед
16:41:21.664000,280,-9,0,присед
16:41:21.664000,280,-17,0,присед
16:41:21.664000,280,-17,0,присед
16:41:21.665000,280,-14,0,присед
16:41:21.665000,280,-4,0,присед
16:41:21.666000,280,14,0,присед
16:41:21.666000,280,37,0,присед
16:41:21.667000,280,32,0,присед
16:41:21.667000,280,-32,0,присед
16:41:21.667000,280,-128,0,присед
16:41:21.668000,280,-89,0,присед
16:41:21.669000,280,237,0,присед
16:41:21.669000,280,752,0,присед
16:41:21.669000,280,1068,0,присед
16:41:21.670000,280,808,0,присед
16:41:21.670000,280,217,0,присед
16:41:21.670000,280,-12,0,присед
16:41:21.672000,280,64,0,присед
16:41:21.672000,280,22,0,присед
16:41:21.672000,280,-39,0,присед
16:41:21.673000,280,-14,0,присед
16:41:21.673000,280,17,0,присед
16:41:21.673000,280,42,0,присед
16:41:21.675000,280,34,0,присед
16:41:21.676000,280,12,0,присед
16:41:21.676000,280,17,0,присед
16:41:21.677000,280,9,0,присед
16:41:21.678000,280,14,0,присед
16:41:21.679000,280,59,0,присед
16:41:21.680000,280,32,0,присед
16:41:21.680000,280,-2,0,присед
16:41:21.681000,280,89,0,присед
16:41:21.682000,280,143,0,присед
16:41:21.682000,280,29,0,присед
16:41:21.683000,280,-54,0,присед
16:41:21.684000,280,19,0,присед
16:41:21.685000,280,71,0,присед
16:41:21.685000,280,49,0,присед
16:41:21.686000,280,61,0,присед
16:41:21.686000,280,86,0,присед
16:41:21.686000,280,86,0,присед
16:41:21.687000,280,106,0,присед
16:41:21.687000,280,145,0,присед
16:41:21.687000,280,123,0,присед
16:41:21.688000,280,89,0,присед
16:41:21.711000,380,89,0,присед
16:41:21.810000,372,89,0,присед
16:41:21.913000,359,89,0,присед
16:41:22.007000,360,89,0,присед
16:41:22.111000,279,89,0,присед
16:41:22.176000,279,71,0,присед
16:41:22.177000,279,2,0,присед
16:41:22.178000,279,-84,0,присед
16:41:22.179000,279,-101,0,присед
16:41:22.180000,279,-81,0,присед
16:41:22.181000,279,-136,0,присед
16:41:22.182000,279,-185,0,присед
16:41:22.183000,279,-165,0,присед
16:41:22.184000,279,-212,0,присед
16:41:22.185000,279,-230,0,присед
16:41:22.186000,279,-143,0,присед
16:41:22.187000,279,-197,0,присед
16:41:22.188000,279,-264,0,присед
16:41:22.188000,279,-153,0,присед
16:41:22.189000,279,-165,0,присед
16:41:22.190000,279,-279,0,присед
16:41:22.191000,279,-249,0,присед
16:41:22.192000,279,-205,0,присед
16:41:22.193000,279,-252,0,присед
16:41:22.194000,279,-249,0,присед
16:41:22.195000,279,-170,0,присед
16:41:22.196000,279,-160,0,присед
16:41:22.197000,279,-235,0,присед
16:41:22.198000,279,-267,0,присед
16:41:22.199000,279,-237,0,присед
16:41:22.199000,279,-227,0,присед
16:41:22.200000,279,-269,0,присед
16:41:22.201000,279,-286,0,присед
16:41:22.201000,279,-277,0,присед
16:41:22.202000,279,-264,0,присед
16:41:22.203000,279,-267,0,присед
16:41:22.204000,279,-351,0,присед
16:41:22.205000,279,-395,0,присед
16:41:22.206000,279,-118,0,присед
16:41:22.206000,279,405,0,присед
16:41:22.207000,279,677,0,присед
16:41:22.209000,279,376,0,присед
16:41:22.210000,279,-165,0,присед
16:41:22.210000,279,-348,0,присед
16:41:22.211000,279,-237,0,присед
16:41:22.212000,279,-259,0,присед
16:41:22.213000,279,-346,0,присед
16:41:22.214000,279,-324,0,присед
16:41:22.215000,279,-301,0,присед
16:41:22.216000,279,-321,0,присед
16:41:22.217000,279,-309,0,присед
16:41:22.217000,279,-284,0,присед
16:41:22.218000,279,-282,0,присед
16:41:22.219000,279,-291,0,присед
16:41:22.219000,279,-284,0,присед
16:41:22.220000,279,-272,0,присед
16:41:22.221000,279,-274,0,присед
16:41:22.221000,279,-274,0,присед
16:41:22.222000,279,-257,0,присед
16:41:22.223000,279,-242,0,присед
16:41:22.223000,279,-239,0,присед
16:41:22.224000,279,-235,0,присед
16:41:22.225000,279,-220,0,присед
16:41:22.226000,279,-202,0,присед
16:41:22.227000,279,-178,0,присед
16:41:22.227000,279,-158,0,присед
16:41:22.228000,279,-148,0,присед
16:41:22.229000,279,-141,0,присед
16:41:22.230000,279,-128,0,присед
16:41:22.231000,279,-116,0,присед
16:41:22.232000,279,-121,0,присед
16:41:22.232000,279,-141,0,присед
16:41:22.233000,279,-168,0,присед
16:41:22.234000,279,-220,0,присед
16:41:22.235000,279,-286,0,присед
16:41:22.236000,279,-331,0,присед
16:41:22.236000,279,-351,0,присед
16:41:22.237000,279,-373,0,присед
16:41:22.238000,301,-373,0,присед
16:41:22.312000,308,-373,0,присед
16:41:22.400000,322,-373,0,присед
16:41:22.498000,289,-373,0,присед
16:41:22.596000,305,-373,0,присед
16:41:22.625000,305,-398,0,присед
16:41:22.626000,305,-403,0,присед
16:41:22.627000,305,-400,0,присед
16:41:22.628000,305,-408,0,присед
16:41:22.629000,305,-403,0,присед
16:41:22.630000,305,-383,0,присед
16:41:22.631000,305,-390,0,присед
16:41:22.632000,305,-415,0,присед
16:41:22.633000,305,-418,0,присед
16:41:22.634000,305,-408,0,присед
16:41:22.635000,305,-413,0,присед
16:41:22.637000,305,-423,0,присед
16:41:22.638000,305,-418,0,присед
16:41:22.639000,305,-395,0,присед
16:41:22.639000,305,-383,0,присед
16:41:22.641000,305,-385,0,присед
16:41:22.642000,305,-393,0,присед
16:41:22.643000,305,-393,0,присед
16:41:22.644000,305,-388,0,присед
16:41:22.645000,305,-385,0,присед
16:41:22.647000,305,-390,0,присед
16:41:22.648000,305,-393,0,присед
16:41:22.649000,305,-403,0,присед
16:41:22.650000,305,-425,0,присед
16:41:22.650000,305,-482,0,присед
16:41:22.651000,305,-566,0,присед
16:41:22.652000,305,-504,0,присед
16:41:22.653000,305,-123,0,присед
16:41:22.654000,305,427,0,присед
16:41:22.655000,305,665,0,присед
16:41:22.656000,305,269,0,присед
16:41:22.657000,305,-289,0,присед
16:41:22.658000,305,-413,0,присед
16:41:22.660000,305,-363,0,присед
16:41:22.661000,305,-465,0,присед
16:41:22.662000,305,-504,0,присед
16:41:22.663000,305,-452,0,присед
16:41:22.665000,305,-457,0,присед
16:41:22.666000,305,-472,0,присед
16:41:22.666000,305,-440,0,присед
16:41:22.667000,305,-423,0,присед
16:41:22.668000,305,-423,0,присед
16:41:22.669000,305,-405,0,присед
16:41:22.670000,305,-400,0,присед
16:41:22.671000,305,-405,0,присед
16:41:22.672000,305,-393,0,присед
16:41:22.673000,305,-376,0,присед
16:41:22.674000,305,-371,0,присед
16:41:22.675000,305,-366,0,присед
16:41:22.676000,305,-351,0,присед
16:41:22.677000,305,-341,0,присед
16:41:22.678000,305,-326,0,присед
16:41:22.679000,305,-291,0,присед
16:41:22.679000,305,-267,0,присед
16:41:22.680000,305,-262,0,присед
16:41:22.681000,305,-242,0,присед
16:41:22.682000,305,-205,0,присед
16:41:22.683000,305,-185,0,присед
16:41:22.684000,305,-183,0,присед
16:41:22.684000,305,-195,0,присед
16:41:22.685000,305,-222,0,присед
16:41:22.686000,305,-230,0,присед
16:41:22.687000,305,-222,0,присед
16:41:22.687000,305,-257,0,присед
16:41:22.688000,305,-311,0,присед
16:41:22.689000,305,-331,0,присед
16:41:22.690000,305,-326,0,присед
16:41:22.691000,305,-319,0,присед
16:41:22.692000,305,-314,0,присед
16:41:22.693000,305,-326,0,присед
16:41:22.693000,305,-336,0,присед
16:41:22.694000,305,-326,0,присед
16:41:22.695000,305,-326,0,присед
16:41:22.697000,295,-326,0,присед
16:41:22.814000,280,-326,0,присед
16:41:22.939000,289,-326,0,присед
16:41:23.014000,272,-326,0,присед
16:41:23.110000,274,-326,0,присед
16:41:23.210000,274,-336,0,присед
16:41:23.211000,274,-329,0,присед
16:41:23.213000,274,-309,0,присед
16:41:23.214000,274,-299,0,присед
16:41:23.215000,274,-291,0,присед
16:41:23.216000,274,-286,0,присед
16:41:23.217000,274,-277,0,присед
16:41:23.218000,274,-272,0,присед
16:41:23.219000,274,-277,0,присед
16:41:23.220000,274,-279,0,присед
16:41:23.220000,274,-267,0,присед
16:41:23.221000,274,-249,0,присед
16:41:23.222000,274,-239,0,присед
16:41:23.223000,274,-247,0,присед
16:41:23.223000,274,-249,0,присед
16:41:23.224000,274,-239,0,присед
16:41:23.225000,274,-242,0,присед
16:41:23.227000,274,-259,0,присед
16:41:23.228000,274,-294,0,присед
16:41:23.229000,274,-376,0,присед
16:41:23.230000,274,-371,0,присед
16:41:23.231000,274,-64,0,присед
16:41:23.232000,274,452,0,присед
16:41:23.233000,274,754,0,присед
16:41:23.234000,274,514,0,присед
16:41:23.235000,274,-24,0,присед
16:41:23.235000,274,-274,0,присед
16:41:23.236000,274,-220,0,присед
16:41:23.237000,274,-252,0,присед
16:41:23.238000,274,-336,0,присед
16:41:23.238000,274,-309,0,присед
16:41:23.239000,274,-277,0,присед
16:41:23.240000,274,-291,0,присед
16:41:23.241000,274,-279,0,присед
16:41:23.242000,274,-257,0,присед
16:41:23.243000,274,-262,0,присед
16:41:23.244000,274,-257,0,присед
16:41:23.245000,274,-242,0,присед
16:41:23.246000,274,-237,0,присед
16:41:23.247000,274,-222,0,присед
16:41:23.248000,274,-210,0,присед
16:41:23.249000,274,-205,0,присед
16:41:23.249000,274,-195,0,присед
16:41:23.250000,274,-183,0,присед
16:41:23.251000,274,-163,0,присед
16:41:23.252000,274,-150,0,присед
16:41:23.253000,274,-145,0,присед
16:41:23.253000,274,-113,0,присед
16:41:23.254000,274,-79,0,присед
16:41:23.255000,274,-69,0,присед
16:41:23.256000,274,-49,0,присед
16:41:23.257000,274,-24,0,присед
16:41:23.266000,274,-9,0,присед
16:41:23.267000,274,7,0,присед
16:41:23.268000,274,9,0,присед
16:41:23.268000,274,-22,0,присед
16:41:23.269000,274,-64,0,присед
16:41:23.270000,274,-98,0,присед
16:41:23.271000,274,-116,0,присед
16:41:23.272000,274,-131,0,присед
16:41:23.272000,274,-148,0,присед
16:41:23.273000,274,-150,0,присед
16:41:23.275000,274,-136,0,присед
16:41:23.276000,274,-121,0,присед
16:41:23.277000,274,-111,0,присед
16:41:23.277000,274,-111,0,присед
16:41:23.278000,274,-111,0,присед
16:41:23.279000,274,-108,0,присед
16:41:23.280000,274,-106,0,присед
16:41:23.280000,274,-106,0,присед
16:41:23.281000,274,-106,0,присед
16:41:23.282000,274,-101,0,присед
16:41:23.283000,274,-103,0,присед
16:41:23.284000,305,-103,0,присед
16:41:23.310000,312,-103,0,присед
16:41:23.409000,301,-103,0,присед
16:41:23.502000,325,-103,0,присед
16:41:23.601000,308,-103,0,присед
16:41:23.700000,303,-103,0,присед
16:41:23.751000,303,-113,0,присед
16:41:23.752000,303,-96,0,присед
16:41:23.754000,303,-59,0,присед
16:41:23.755000,303,-49,0,присед
16:41:23.756000,303,-54,0,присед
16:41:23.757000,303,-39,0,присед
16:41:23.758000,303,-32,0,присед
16:41:23.760000,303,-44,0,присед
16:41:23.761000,303,-44,0,присед
16:41:23.762000,303,-34,0,присед
16:41:23.763000,303,-44,0,присед
16:41:23.763000,303,-51,0,присед
16:41:23.764000,303,-44,0,присед
16:41:23.765000,303,-81,0,присед
16:41:23.766000,303,-183,0,присед
16:41:23.767000,303,-178,0,присед
16:41:23.767000,303,126,0,присед
16:41:23.768000,303,635,0,присед
16:41:23.769000,303,935,0,присед
16:41:23.770000,303,672,0,присед
16:41:23.771000,303,111,0,присед
16:41:23.771000,303,-118,0,присед
16:41:23.772000,303,-54,0,присед
16:41:23.773000,303,-106,0,присед
16:41:23.774000,303,-185,0,присед
16:41:23.775000,303,-148,0,присед
16:41:23.776000,303,-131,0,присед
16:41:23.778000,303,-155,0,присед
16:41:23.778000,303,-148,0,присед
16:41:23.779000,303,-141,0,присед
16:41:23.780000,303,-155,0,присед
16:41:23.781000,303,-153,0,присед
16:41:23.782000,303,-143,0,присед
16:41:23.783000,303,-145,0,присед
16:41:23.784000,303,-145,0,присед
16:41:23.785000,303,-138,0,присед
16:41:23.786000,303,-133,0,присед
16:41:23.786000,303,-131,0,присед
16:41:23.787000,303,-123,0,присед
16:41:23.788000,303,-118,0,присед
16:41:23.789000,303,-118,0,присед
16:41:23.791000,303,-103,0,присед
16:41:23.792000,303,-86,0,присед
16:41:23.793000,303,-79,0,присед
16:41:23.794000,303,-66,0,присед
16:41:23.795000,303,-51,0,присед
16:41:23.796000,303,-37,0,присед
16:41:23.797000,303,-34,0,присед
16:41:23.797000,303,-39,0,присед
16:41:23.798000,303,-49,0,присед
16:41:23.799000,303,-84,0,присед
16:41:23.800000,303,-136,0,присед
16:41:23.801000,303,-163,0,присед
16:41:23.802000,303,-188,0,присед
16:41:23.802000,303,-230,0,присед
16:41:23.803000,303,-247,0,присед
16:41:23.804000,303,-249,0,присед
16:41:23.805000,303,-272,0,присед
16:41:23.806000,303,-277,0,присед
16:41:23.807000,303,-262,0,присед
16:41:23.809000,303,-269,0,присед
16:41:23.810000,303,-279,0,присед
16:41:23.811000,303,-277,0,присед
16:41:23.811000,303,-282,0,присед
16:41:23.812000,303,-294,0,присед
16:41:23.812000,303,-294,0,присед
16:41:23.813000,303,-294,0,присед
16:41:23.813000,303,-304,0,присед
16:41:23.814000,303,-306,0,присед
16:41:23.815000,303,-304,0,присед
16:41:23.815000,303,-301,0,присед
16:41:23.816000,303,-291,0,присед
16:41:23.817000,303,-269,0,присед
16:41:23.818000,347,-269,0,присед
16:41:23.893000,324,-269,0,присед
16:41:23.992000,340,-269,0,присед
16:41:24.091000,307,-269,0,присед
16:41:24.212000,288,-269,0,присед
16:41:24.291000,334,-269,0,присед
16:41:24.335000,334,-267,0,присед
16:41:24.336000,334,-279,0,присед
16:41:24.336000,334,-284,0,присед
16:41:24.337000,334,-284,0,присед
16:41:24.337000,334,-294,0,присед
16:41:24.338000,334,-301,0,присед
16:41:24.339000,334,-294,0,присед
16:41:24.339000,334,-286,0,присед
16:41:24.340000,334,-296,0,присед
16:41:24.340000,334,-363,0,присед
16:41:24.341000,334,-430,0,присед
16:41:24.342000,334,-277,0,присед
16:41:24.343000,334,190,0,присед
16:41:24.343000,334,648,0,присед
16:41:24.344000,334,611,0,присед
16:41:24.345000,334,84,0,присед
16:41:24.346000,334,-324,0,присед
16:41:24.347000,334,-321,0,присед
16:41:24.347000,334,-306,0,присед
16:41:24.348000,334,-408,0,присед
16:41:24.348000,334,-410,0,присед
16:41:24.349000,334,-366,0,присед
16:41:24.350000,334,-378,0,присед
16:41:24.350000,334,-385,0,присед
16:41:24.351000,334,-371,0,присед
16:41:24.352000,334,-358,0,присед
16:41:24.353000,334,-366,0,присед
16:41:24.354000,334,-368,0,присед
16:41:24.354000,334,-358,0,присед
16:41:24.355000,334,-351,0,присед
16:41:24.355000,334,-343,0,присед
16:41:24.356000,334,-341,0,присед
16:41:24.357000,334,-346,0,присед
16:41:24.357000,334,-331,0,присед
16:41:24.358000,334,-309,0,присед
16:41:24.359000,334,-301,0,присед
16:41:24.359000,334,-299,0,присед
16:41:24.360000,334,-286,0,присед
16:41:24.360000,334,-262,0,присед
16:41:24.361000,334,-239,0,присед
16:41:24.361000,334,-225,0,присед
16:41:24.361000,334,-210,0,присед
16:41:24.362000,334,-197,0,присед
16:41:24.362000,334,-200,0,присед
16:41:24.363000,334,-202,0,присед
16:41:24.363000,334,-207,0,присед
16:41:24.363000,334,-239,0,присед
16:41:24.364000,334,-286,0,присед
16:41:24.365000,334,-329,0,присед
16:41:24.365000,334,-361,0,присед
16:41:24.366000,334,-385,0,присед
16:41:24.367000,334,-385,0,присед
16:41:24.367000,334,-376,0,присед
16:41:24.368000,334,-378,0,присед
16:41:24.369000,334,-371,0,присед
16:41:24.370000,334,-361,0,присед
16:41:24.371000,334,-371,0,присед
16:41:24.372000,334,-361,0,присед
16:41:24.372000,334,-338,0,присед
16:41:24.373000,334,-343,0,присед
16:41:24.374000,334,-358,0,присед
16:41:24.375000,334,-361,0,присед
16:41:24.376000,334,-356,0,присед
16:41:24.376000,334,-336,0,присед
16:41:24.377000,334,-321,0,присед
16:41:24.377000,334,-326,0,присед
16:41:24.378000,334,-319,0,присед
16:41:24.378000,334,-296,0,присед
16:41:24.379000,334,-282,0,присед
16:41:24.380000,334,-286,0,присед
16:41:24.380000,334,-286,0,присед
16:41:24.381000,334,-267,0,присед
16:41:24.381000,334,-277,0,присед
16:41:24.413000,350,-277,0,присед
16:41:24.514000,337,-277,0,присед
16:41:24.604000,276,-277,0,присед
16:41:24.704000,332,-277,0,присед
16:41:24.803000,286,-277,0,присед
16:41:24.875000,286,-284,0,присед
16:41:24.876000,286,-249,0,присед
16:41:24.877000,286,-257,0,присед
16:41:24.878000,286,-353,0,присед
16:41:24.880000,286,-415,0,присед
16:41:24.881000,286,-232,0,присед
16:41:24.881000,286,237,0,присед
16:41:24.882000,286,687,0,присед
16:41:24.883000,286,665,0,присед
16:41:24.884000,286,150,0,присед
16:41:24.885000,286,-274,0,присед
16:41:24.886000,286,-272,0,присед
16:41:24.887000,286,-220,0,присед
16:41:24.888000,286,-304,0,присед
16:41:24.889000,286,-311,0,присед
16:41:24.890000,286,-272,0,присед
16:41:24.891000,286,-286,0,присед
16:41:24.892000,286,-304,0,присед
16:41:24.893000,286,-286,0,присед
16:41:24.895000,286,-267,0,присед
16:41:24.896000,286,-259,0,присед
16:41:24.897000,286,-259,0,присед
16:41:24.898000,286,-249,0,присед
16:41:24.899000,286,-227,0,присед
16:41:24.900000,286,-197,0,присед
16:41:24.901000,286,-195,0,присед
16:41:24.902000,286,-237,0,присед
16:41:24.902000,286,-235,0,присед
16:41:24.903000,286,-175,0,присед
16:41:24.904000,286,-150,0,присед
16:41:24.905000,286,-165,0,присед
16:41:24.905000,286,-133,0,присед
16:41:24.906000,286,-56,0,присед
16:41:24.907000,286,-12,0,присед
16:41:24.908000,286,-76,0,присед
16:41:24.909000,286,-175,0,присед
16:41:24.910000,286,-143,0,присед
16:41:24.910000,286,-64,0,присед
16:41:24.911000,286,-91,0,присед
16:41:24.912000,286,-123,0,присед
16:41:24.912000,286,-126,0,присед
16:41:24.913000,286,-195,0,присед
16:41:24.914000,286,-267,0,присед
16:41:24.915000,286,-267,0,присед
16:41:24.916000,286,-267,0,присед
16:41:24.917000,286,-294,0,присед
16:41:24.917000,286,-289,0,присед
16:41:24.918000,286,-257,0,присед
16:41:24.919000,286,-262,0,присед
16:41:24.919000,286,-282,0,присед
16:41:24.920000,286,-244,0,присед
16:41:24.921000,286,-242,0,присед
16:41:24.922000,286,-314,0,присед
16:41:24.922000,286,-277,0,присед
16:41:24.923000,286,-202,0,присед
16:41:24.924000,286,-257,0,присед
16:41:24.925000,286,-264,0,присед
16:41:24.925000,286,-178,0,присед
16:41:24.926000,286,-185,0,присед
16:41:24.927000,286,-200,0,присед
16:41:24.928000,286,-128,0,присед
16:41:24.928000,286,-148,0,присед
16:41:24.929000,286,-259,0,присед
16:41:24.930000,286,-242,0,присед
16:41:24.931000,286,-138,0,присед
16:41:24.931000,286,-133,0,присед
16:41:24.932000,286,-136,0,присед
16:41:24.933000,286,-66,0,присед
16:41:24.934000,286,-86,0,присед
16:41:24.935000,286,-190,0,присед
16:41:24.935000,286,-242,0,присед
16:41:24.936000,286,-264,0,присед
16:41:24.937000,286,-94,0,присед
16:41:24.948000,293,-94,0,присед
16:41:24.999000,309,-94,0,присед
16:41:25.102000,295,-94,0,присед
16:41:25.204000,350,-94,0,присед
16:41:25.315000,265,-94,0,присед
16:41:25.393000,265,-94,0,присед
16:41:25.493000,263,-94,0,присед
16:41:25.506000,263,432,0,присед
16:41:25.507000,263,890,0,присед
16:41:25.508000,263,784,0,присед
16:41:25.510000,263,244,0,присед
16:41:25.511000,263,-91,0,присед
16:41:25.512000,263,-74,0,присед
16:41:25.513000,263,-111,0,присед
16:41:25.514000,263,-190,0,присед
16:41:25.515000,263,-160,0,присед
16:41:25.516000,263,-160,0,присед
16:41:25.517000,263,-195,0,присед
16:41:25.517000,263,-175,0,присед
16:41:25.518000,263,-138,0,присед
16:41:25.519000,263,-150,0,присед
16:41:25.519000,263,-158,0,присед
16:41:25.520000,263,-106,0,присед
16:41:25.521000,263,-39,0,присед
16:41:25.521000,263,-69,0,присед
16:41:25.522000,263,-108,0,присед
16:41:25.522000,263,-32,0,присед
16:41:25.523000,263,-27,0,присед
16:41:25.524000,263,-96,0,присед
16:41:25.526000,263,-39,0,присед
16:41:25.527000,263,17,0,присед
16:41:25.528000,263,34,0,присед
16:41:25.529000,263,37,0,присед
16:41:25.530000,263,7,0,присед
16:41:25.531000,263,86,0,присед
16:41:25.532000,263,165,0,присед
16:41:25.533000,263,141,0,присед
16:41:25.533000,263,111,0,присед
16:41:25.534000,263,108,0,присед
16:41:25.535000,263,123,0,присед
16:41:25.536000,263,81,0,присед
16:41:25.537000,263,-2,0,присед
16:41:25.538000,263,-108,0,присед
16:41:25.539000,263,-220,0,присед
16:41:25.539000,263,-192,0,присед
16:41:25.541000,263,-81,0,присед
16:41:25.541000,263,-111,0,присед
16:41:25.543000,263,-225,0,присед
16:41:25.544000,263,-185,0,присед
16:41:25.544000,263,-123,0,присед
16:41:25.545000,263,-220,0,присед
16:41:25.545000,263,-210,0,присед
16:41:25.547000,263,-86,0,присед
16:41:25.547000,263,-150,0,присед
16:41:25.548000,263,-249,0,присед
16:41:25.549000,263,-153,0,присед
16:41:25.550000,263,-79,0,присед
16:41:25.551000,263,-155,0,присед
16:41:25.551000,263,-165,0,присед
16:41:25.552000,263,-118,0,присед
16:41:25.553000,263,-113,0,присед
16:41:25.553000,263,-74,0,присед
16:41:25.554000,263,-51,0,присед
16:41:25.555000,263,-94,0,присед
16:41:25.556000,263,-86,0,присед
16:41:25.557000,263,-42,0,присед
16:41:25.557000,263,-66,0,присед
16:41:25.558000,263,-118,0,присед
16:41:25.559000,263,-160,0,присед
16:41:25.560000,263,-259,0,присед
16:41:25.561000,263,-217,0,присед
16:41:25.562000,263,200,0,присед
16:41:25.563000,263,799,0,присед
16:41:25.563000,263,1083,0,присед
16:41:25.564000,263,663,0,присед
16:41:25.565000,263,-19,0,присед
16:41:25.566000,263,-153,0,присед
16:41:25.567000,263,-9,0,присед
16:41:25.567000,263,-121,0,присед
16:41:25.568000,263,-200,0,присед
16:41:25.594000,267,-200,0,присед
16:41:25.708000,280,-200,0,присед
16:41:25.807000,291,-200,0,присед
16:41:25.909000,324,-200,0,присед
16:41:25.999000,324,-116,0,присед
16:41:26.008000,324,-121,0,присед
16:41:26.009000,324,-158,0,присед
16:41:26.010000,324,-113,0,присед
16:41:26.011000,324,-81,0,присед
16:41:26.012000,324,-91,0,присед
16:41:26.013000,324,-79,0,присед
16:41:26.014000,324,-64,0,присед
16:41:26.015000,324,-61,0,присед
16:41:26.016000,324,-42,0,присед
16:41:26.017000,324,-22,0,присед
16:41:26.018000,324,-27,0,присед
16:41:26.019000,324,-9,0,присед
16:41:26.020000,324,34,0,присед
16:41:26.021000,324,44,0,присед
16:41:26.021000,324,32,0,присед
16:41:26.022000,324,59,0,присед
16:41:26.023000,324,103,0,присед
16:41:26.024000,324,121,0,присед
16:41:26.025000,324,128,0,присед
16:41:26.026000,324,145,0,присед
16:41:26.027000,324,150,0,присед
16:41:26.027000,324,136,0,присед
16:41:26.028000,324,116,0,присед
16:41:26.029000,324,84,0,присед
16:41:26.030000,324,39,0,присед
16:41:26.031000,324,-17,0,присед
16:41:26.032000,324,-91,0,присед
16:41:26.033000,324,-153,0,присед
16:41:26.034000,324,-185,0,присед
16:41:26.034000,324,-210,0,присед
16:41:26.035000,324,-227,0,присед
16:41:26.036000,324,-225,0,присед
16:41:26.037000,324,-227,0,присед
16:41:26.038000,324,-239,0,присед
16:41:26.039000,324,-247,0,присед
16:41:26.040000,324,-235,0,присед
16:41:26.041000,324,-232,0,присед
16:41:26.042000,324,-242,0,присед
16:41:26.043000,324,-239,0,присед
16:41:26.043000,324,-242,0,присед
16:41:26.045000,324,-247,0,присед
16:41:26.046000,324,-222,0,присед
16:41:26.047000,324,-188,0,присед
16:41:26.048000,324,-178,0,присед
16:41:26.115000,324,-178,0,присед
16:41:26.116000,324,-178,0,присед
16:41:26.118000,324,-168,0,присед
16:41:26.120000,324,-153,0,присед
16:41:26.121000,324,-153,0,присед
16:41:26.122000,324,-150,0,присед
16:41:26.122000,324,-143,0,присед
16:41:26.123000,324,-141,0,присед
16:41:26.123000,324,-153,0,присед
16:41:26.124000,324,-227,0,присед
16:41:26.125000,324,-284,0,присед
16:41:26.126000,324,-64,0,присед
16:41:26.126000,324,437,0,присед
16:41:26.127000,324,823,0,присед
16:41:26.127000,324,680,0,присед
16:41:26.128000,324,148,0,присед
16:41:26.129000,324,-158,0,присед
16:41:26.129000,324,-103,0,присед
16:41:26.130000,324,-96,0,присед
16:41:26.130000,324,-175,0,присед
16:41:26.131000,324,-168,0,присед
16:41:26.131000,324,-163,0,присед
16:41:26.132000,324,-215,0,присед
16:41:26.133000,324,-244,0,присед
16:41:26.133000,324,-235,0,присед
16:41:26.134000,324,-237,0,присед
16:41:26.135000,324,-244,0,присед
16:41:26.135000,324,-237,0,присед
16:41:26.136000,263,-237,0,присед
16:41:26.138000,264,-237,0,присед
16:41:26.196000,280,-237,0,присед
16:41:26.298000,282,-237,0,присед
16:41:26.417000,284,-237,0,присед
16:41:26.494000,344,-237,0,присед
16:41:26.540000,344,-235,0,присед
16:41:26.541000,344,-235,0,присед
16:41:26.542000,344,-185,0,присед
16:41:26.543000,344,17,0,присед
16:41:26.544000,344,195,0,присед
16:41:26.545000,344,170,0,присед
16:41:26.546000,344,94,0,присед
16:41:26.547000,344,7,0,присед
16:41:26.547000,344,4,0,присед
16:41:26.548000,344,-9,0,присед
16:41:26.549000,344,-227,0,присед
16:41:26.550000,344,-264,0,присед
16:41:26.551000,344,-106,0,присед
16:41:26.551000,344,-128,0,присед
16:41:26.552000,344,-173,0,присед
16:41:26.553000,344,-101,0,присед
16:41:26.554000,344,-89,0,присед
16:41:26.555000,344,-133,0,присед
16:41:26.555000,344,-148,0,присед
16:41:26.556000,344,-168,0,присед
16:41:26.557000,344,-210,0,присед
16:41:26.558000,344,-239,0,присед
16:41:26.558000,344,-239,0,присед
16:41:26.559000,344,-215,0,присед
16:41:26.560000,344,-131,0,присед
16:41:26.561000,344,121,0,присед
16:41:26.562000,344,291,0,присед
16:41:26.562000,344,94,0,присед
16:41:26.563000,344,207,0,присед
16:41:26.564000,344,670,0,присед
16:41:26.565000,344,650,0,присед
16:41:26.566000,344,526,0,присед
16:41:26.566000,344,472,0,присед
16:41:26.567000,344,183,0,присед
16:41:26.568000,344,108,0,присед
16:41:26.569000,344,274,0,присед
16:41:26.569000,344,380,0,присед
16:41:26.570000,344,190,0,присед
16:41:26.571000,344,-113,0,присед
16:41:26.572000,344,-121,0,присед
16:41:26.572000,344,-138,0,присед
16:41:26.574000,344,-205,0,присед
16:41:26.574000,344,37,0,присед
16:41:26.575000,344,324,0,присед
16:41:26.576000,344,484,0,присед
16:41:26.577000,344,593,0,присед
16:41:26.577000,344,494,0,присед
16:41:26.578000,344,314,0,присед
16:41:26.579000,344,373,0,присед
16:41:26.580000,344,712,0,присед
16:41:26.580000,344,1130,0,присед
16:41:26.581000,344,1298,0,присед
16:41:26.582000,344,880,0,присед
16:41:26.583000,344,217,0,присед
16:41:26.584000,344,138,0,присед
16:41:26.584000,344,316,0,присед
16:41:26.585000,344,89,0,присед
16:41:26.586000,344,-64,0,присед
16:41:26.587000,344,101,0,присед
16:41:26.587000,344,96,0,присед
16:41:26.588000,344,-34,0,присед
16:41:26.589000,344,2,0,присед
16:41:26.590000,344,-7,0,присед
16:41:26.591000,344,-155,0,присед
16:41:26.592000,344,-165,0,присед
16:41:26.593000,344,34,0,присед
16:41:26.593000,344,180,0,присед
16:41:26.594000,344,56,0,присед
16:41:26.595000,344,-27,0,присед
16:41:26.595000,344,-12,0,присед
16:41:26.596000,344,-123,0,присед
16:41:26.597000,344,-64,0,присед
16:41:26.598000,344,39,0,присед
16:41:26.599000,405,39,0,присед
16:41:26.692000,393,39,0,присед
16:41:26.809000,387,39,0,присед
16:41:26.908000,330,39,0,присед
16:41:27.006000,279,39,0,присед
16:41:27.107000,356,39,0,присед
16:41:27.200000,351,39,0,присед
16:41:27.214000,351,-163,0,присед
16:41:27.216000,351,-440,0,присед
16:41:27.217000,351,-633,0,присед
16:41:27.218000,351,-680,0,присед
16:41:27.219000,351,-556,0,присед
16:41:27.220000,351,-400,0,присед
16:41:27.220000,351,-388,0,присед
16:41:27.221000,351,-524,0,присед
16:41:27.222000,351,-616,0,присед
16:41:27.223000,351,-576,0,присед
16:41:27.224000,351,-571,0,присед
16:41:27.226000,351,-645,0,присед
16:41:27.227000,351,-660,0,присед
16:41:27.228000,351,-606,0,присед
16:41:27.229000,351,-561,0,присед
16:41:27.229000,351,-576,0,присед
16:41:27.230000,351,-638,0,присед
16:41:27.231000,351,-576,0,присед
16:41:27.232000,351,-408,0,присед
16:41:27.233000,351,-455,0,присед
16:41:27.234000,351,-564,0,присед
16:41:27.235000,351,-420,0,присед
16:41:27.235000,351,-351,0,присед
16:41:27.236000,351,-455,0,присед
16:41:27.237000,351,-418,0,присед
16:41:27.238000,351,-338,0,присед
16:41:27.239000,351,-408,0,присед
16:41:27.240000,351,-465,0,присед
16:41:27.240000,351,-403,0,присед
16:41:27.241000,351,-383,0,присед
16:41:27.242000,351,-393,0,присед
16:41:27.242000,351,-286,0,присед
16:41:27.243000,351,-118,0,присед
16:41:27.243000,351,-54,0,присед
16:41:27.243000,351,-138,0,присед
16:41:27.244000,351,-205,0,присед
16:41:27.244000,351,-153,0,присед
16:41:27.245000,351,-126,0,присед
16:41:27.245000,351,-212,0,присед
16:41:27.246000,351,-222,0,присед
16:41:27.246000,351,-185,0,присед
16:41:27.247000,351,-356,0,присед
16:41:27.247000,351,-284,0,присед
16:41:27.248000,351,450,0,присед
16:41:27.250000,351,1123,0,присед
16:41:27.251000,351,1026,0,присед
16:41:27.251000,351,460,0,присед
16:41:27.252000,351,-2,0,присед
16:41:27.252000,351,-145,0,присед
16:41:27.253000,351,-133,0,присед
16:41:27.253000,351,-155,0,присед
16:41:27.254000,351,-165,0,присед
16:41:27.255000,351,-91,0,присед
16:41:27.255000,351,-2,0,присед
16:41:27.255000,351,17,0,присед
16:41:27.256000,351,-56,0,присед
16:41:27.257000,351,-155,0,присед
16:41:27.258000,351,-136,0,присед
16:41:27.258000,351,2,0,присед
16:41:27.259000,351,51,0,присед
16:41:27.259000,351,-56,0,присед
16:41:27.260000,351,-131,0,присед
16:41:27.260000,351,-66,0,присед
16:41:27.261000,351,61,0,присед
16:41:27.261000,351,76,0,присед
16:41:27.262000,351,-54,0,присед
16:41:27.262000,351,-54,0,присед
16:41:27.263000,351,29,0,присед
16:41:27.263000,351,-14,0,присед
16:41:27.264000,351,-69,0,присед
16:41:27.264000,351,7,0,присед
16:41:27.265000,351,76,0,присед
16:41:27.265000,351,81,0,присед
16:41:27.298000,360,81,0,присед
16:41:27.400000,307,81,0,присед
16:41:27.520000,329,81,0,присед
16:41:27.596000,295,81,0,присед
16:41:27.695000,291,81,0,присед
16:41:27.710000,291,136,0,присед
16:41:27.712000,291,118,0,присед
16:41:27.712000,291,47,0,присед
16:41:27.713000,291,66,0,присед
16:41:27.714000,291,14,0,присед
16:41:27.715000,291,-108,0,присед
16:41:27.715000,291,-155,0,присед
16:41:27.716000,291,-153,0,присед
16:41:27.717000,291,-148,0,присед
16:41:27.718000,291,-207,0,присед
16:41:27.719000,291,-239,0,присед
16:41:27.719000,291,-173,0,присед
16:41:27.720000,291,-136,0,присед
16:41:27.721000,291,-202,0,присед
16:41:27.722000,291,-257,0,присед
16:41:27.723000,291,-232,0,присед
16:41:27.724000,291,-247,0,присед
16:41:27.725000,291,-294,0,присед
16:41:27.726000,291,-237,0,присед
16:41:27.727000,291,-197,0,присед
16:41:27.728000,291,-207,0,присед
16:41:27.729000,291,-150,0,присед
16:41:27.729000,291,-113,0,присед
16:41:27.730000,291,-150,0,присед
16:41:27.731000,291,-185,0,присед
16:41:27.731000,291,-232,0,присед
16:41:27.732000,291,-274,0,присед
16:41:27.733000,291,-225,0,присед
16:41:27.734000,291,-242,0,присед
16:41:27.735000,291,-306,0,присед
16:41:27.736000,291,-237,0,присед
16:41:27.737000,291,-331,0,присед
16:41:27.738000,291,-512,0,присед
16:41:27.739000,291,-200,0,присед
16:41:27.740000,291,427,0,присед
16:41:27.741000,291,712,0,присед
16:41:27.742000,291,442,0,присед
16:41:27.742000,291,-91,0,присед
16:41:27.743000,291,-376,0,присед
16:41:27.744000,291,-314,0,присед
16:41:27.744000,291,-309,0,присед
16:41:27.745000,291,-415,0,присед
16:41:27.746000,291,-423,0,присед
16:41:27.747000,291,-398,0,присед
16:41:27.747000,291,-418,0,присед
16:41:27.748000,291,-432,0,присед
16:41:27.749000,291,-420,0,присед
16:41:27.750000,291,-415,0,присед
16:41:27.751000,291,-420,0,присед
16:41:27.751000,291,-435,0,присед
16:41:27.753000,291,-445,0,присед
16:41:27.753000,291,-447,0,присед
16:41:27.754000,291,-437,0,присед
16:41:27.755000,291,-435,0,присед
16:41:27.756000,291,-447,0,присед
16:41:27.756000,291,-455,0,присед
16:41:27.757000,291,-450,0,присед
16:41:27.758000,291,-452,0,присед
16:41:27.759000,291,-445,0,присед
16:41:27.760000,291,-430,0,присед
16:41:27.761000,291,-435,0,присед
16:41:27.761000,291,-435,0,присед
16:41:27.762000,291,-395,0,присед
16:41:27.763000,291,-373,0,присед
16:41:27.764000,291,-376,0,присед
16:41:27.765000,291,-368,0,присед
16:41:27.766000,291,-378,0,присед
16:41:27.766000,291,-445,0,присед
16:41:27.767000,291,-512,0,присед
16:41:27.768000,291,-559,0,присед
16:41:27.769000,291,-623,0,присед
16:41:27.770000,291,-690,0,присед
16:41:27.771000,291,-734,0,присед
16:41:27.794000,326,-734,0,присед
16:41:27.913000,304,-734,0,присед
16:41:28.011000,289,-734,0,присед
16:41:28.110000,368,-734,0,присед
16:41:28.205000,368,-759,0,присед
16:41:28.206000,368,-784,0,присед
16:41:28.207000,368,-823,0,присед
16:41:28.208000,368,-846,0,присед
16:41:28.210000,368,-853,0,присед
16:41:28.211000,368,-883,0,присед
16:41:28.212000,368,-907,0,присед
16:41:28.213000,368,-915,0,присед
16:41:28.214000,368,-932,0,присед
16:41:28.215000,368,-940,0,присед
16:41:28.215000,368,-922,0,присед
16:41:28.216000,368,-915,0,присед
16:41:28.217000,368,-910,0,присед
16:41:28.218000,368,-890,0,присед
16:41:28.219000,368,-865,0,присед
16:41:28.220000,368,-855,0,присед
16:41:28.220000,368,-885,0,присед
16:41:28.221000,368,-922,0,присед
16:41:28.222000,368,-915,0,присед
16:41:28.223000,368,-893,0,присед
16:41:28.224000,368,-902,0,присед
16:41:28.225000,368,-920,0,присед
16:41:28.226000,368,-932,0,присед
16:41:28.226000,368,-997,0,присед
16:41:28.227000,368,-1098,0,присед
16:41:28.228000,368,-1011,0,присед
16:41:28.229000,368,-588,0,присед
16:41:28.230000,368,-71,0,присед
16:41:28.230000,368,39,0,присед
16:41:28.231000,368,-440,0,присед
16:41:28.232000,368,-984,0,присед
16:41:28.233000,368,-1083,0,присед
16:41:28.233000,368,-1046,0,присед
16:41:28.234000,368,-1155,0,присед
16:41:28.235000,368,-1199,0,присед
16:41:28.236000,368,-1165,0,присед
16:41:28.237000,368,-1180,0,присед
16:41:28.237000,368,-1185,0,присед
16:41:28.238000,368,-1165,0,присед
16:41:28.239000,368,-1172,0,присед
16:41:28.240000,368,-1180,0,присед
16:41:28.241000,368,-1155,0,присед
16:41:28.242000,368,-1133,0,присед
16:41:28.243000,368,-1125,0,присед
16:41:28.243000,368,-1110,0,присед
16:41:28.244000,368,-1088,0,присед
16:41:28.245000,368,-1068,0,присед
16:41:28.246000,368,-1044,0,присед
16:41:28.246000,368,-1011,0,присед
16:41:28.247000,368,-984,0,присед
16:41:28.248000,368,-952,0,присед
16:41:28.249000,368,-905,0,присед
16:41:28.250000,368,-863,0,присед
16:41:28.251000,368,-826,0,присед
16:41:28.251000,368,-786,0,присед
16:41:28.252000,368,-749,0,присед
16:41:28.253000,368,-722,0,присед
16:41:28.254000,368,-710,0,присед
16:41:28.255000,368,-705,0,присед
16:41:28.257000,368,-702,0,присед
16:41:28.258000,368,-719,0,присед
16:41:28.258000,368,-754,0,присед
16:41:28.259000,368,-786,0,присед
16:41:28.260000,368,-816,0,присед
16:41:28.261000,368,-841,0,присед
16:41:28.261000,368,-843,0,присед
16:41:28.262000,368,-833,0,присед
16:41:28.263000,368,-821,0,присед
16:41:28.264000,368,-811,0,присед
16:41:28.264000,368,-801,0,присед
16:41:28.265000,368,-801,0,присед
16:41:28.266000,368,-794,0,присед
16:41:28.267000,368,-779,0,присед
16:41:28.268000,323,-779,0,присед
16:41:28.304000,335,-779,0,присед
16:41:28.403000,302,-779,0,присед
16:41:28.503000,297,-779,0,присед
16:41:28.623000,299,-779,0,присед
16:41:28.702000,280,-779,0,присед
16:41:28.803000,273,-779,0,присед
16:41:28.880000,273,-764,0,присед
16:41:28.881000,273,-749,0,присед
16:41:28.882000,273,-732,0,присед
16:41:28.882000,273,-717,0,присед
16:41:28.883000,273,-690,0,присед
16:41:28.885000,273,-658,0,присед
16:41:28.886000,273,-638,0,присед
16:41:28.887000,273,-640,0,присед
16:41:28.888000,273,-643,0,присед
16:41:28.888000,273,-623,0,присед
16:41:28.889000,273,-588,0,присед
16:41:28.890000,273,-583,0,присед
16:41:28.891000,273,-588,0,присед
16:41:28.892000,273,-561,0,присед
16:41:28.893000,273,-613,0,присед
16:41:28.894000,273,-710,0,присед
16:41:28.894000,273,-529,0,присед
16:41:28.895000,273,-2,0,присед
16:41:28.896000,273,497,0,присед
16:41:28.897000,273,509,0,присед
16:41:28.897000,273,-4,0,присед
16:41:28.898000,273,-452,0,присед
16:41:28.899000,273,-457,0,присед
16:41:28.900000,273,-410,0,присед
16:41:28.900000,273,-502,0,присед
16:41:28.901000,273,-499,0,присед
16:41:28.902000,273,-440,0,присед
16:41:28.903000,273,-440,0,присед
16:41:28.904000,273,-427,0,присед
16:41:28.905000,273,-385,0,присед
16:41:28.906000,273,-378,0,присед
16:41:28.907000,273,-378,0,присед
16:41:28.907000,273,-353,0,присед
16:41:28.908000,273,-324,0,присед
16:41:28.909000,273,-291,0,присед
16:41:28.910000,273,-264,0,присед
16:41:28.911000,273,-259,0,присед
16:41:28.912000,273,-242,0,присед
16:41:28.912000,273,-202,0,присед
16:41:28.913000,273,-165,0,присед
16:41:28.914000,273,-143,0,присед
16:41:28.915000,273,-126,0,присед
16:41:28.915000,273,-111,0,присед
16:41:28.916000,273,-86,0,присед
16:41:28.917000,273,-32,0,присед
16:41:28.918000,273,2,0,присед
16:41:28.918000,273,-9,0,присед
16:41:28.919000,273,-17,0,присед
16:41:28.920000,273,0,0,присед
16:41:28.920000,273,32,0,присед
16:41:28.921000,273,14,0,присед
16:41:28.922000,273,-64,0,присед
16:41:28.923000,273,-98,0,присед
16:41:28.924000,273,-94,0,присед
16:41:28.925000,273,-128,0,присед
16:41:28.926000,273,-160,0,присед
16:41:28.926000,273,-160,0,присед
16:41:28.927000,273,-158,0,присед
16:41:28.928000,273,-155,0,присед
16:41:28.929000,273,-141,0,присед
16:41:28.929000,273,-133,0,присед
16:41:28.930000,273,-133,0,присед
16:41:28.931000,273,-113,0,присед
16:41:28.932000,273,-98,0,присед
16:41:28.932000,273,-136,0,присед
16:41:28.933000,273,-155,0,присед
16:41:28.934000,273,-96,0,присед
16:41:28.935000,273,-96,0,присед
16:41:28.936000,273,-131,0,присед
16:41:28.936000,273,-42,0,присед
16:41:28.937000,273,-14,0,присед
16:41:28.938000,273,-91,0,присед
16:41:28.939000,273,-44,0,присед
16:41:28.940000,273,-44,0,присед
16:41:29.014000,273,-44,0,присед
16:41:29.114000,275,-44,0,присед
16:41:29.213000,300,-44,0,присед
16:41:29.311000,287,-44,0,присед
16:41:29.405000,329,-44,0,присед
16:41:29.420000,329,9,0,присед
16:41:29.421000,329,-29,0,присед
16:41:29.422000,329,32,0,присед
16:41:29.422000,329,113,0,присед
16:41:29.423000,329,22,0,присед
16:41:29.424000,329,-106,0,присед
16:41:29.425000,329,-128,0,присед
16:41:29.426000,329,59,0,присед
16:41:29.426000,329,613,0,присед
16:41:29.427000,329,1172,0,присед
16:41:29.428000,329,1095,0,присед
16:41:29.428000,329,519,0,присед
16:41:29.429000,329,136,0,присед
16:41:29.430000,329,54,0,присед
16:41:29.431000,329,-12,0,присед
16:41:29.432000,329,-4,0,присед
16:41:29.432000,329,27,0,присед
16:41:29.433000,329,-81,0,присед
16:41:29.434000,329,-128,0,присед
16:41:29.435000,329,-37,0,присед
16:41:29.436000,329,9,0,присед
16:41:29.437000,329,-17,0,присед
16:41:29.437000,329,-29,0,присед
16:41:29.438000,329,-7,0,присед
16:41:29.439000,329,2,0,присед
16:41:29.440000,329,4,0,присед
16:41:29.441000,329,39,0,присед
16:41:29.442000,329,61,0,присед
16:41:29.442000,329,84,0,присед
16:41:29.443000,329,121,0,присед
16:41:29.444000,329,91,0,присед
16:41:29.444000,329,71,0,присед
16:41:29.445000,329,148,0,присед
16:41:29.446000,329,215,0,присед
16:41:29.447000,329,202,0,присед
16:41:29.447000,329,197,0,присед
16:41:29.448000,329,257,0,присед
16:41:29.449000,329,274,0,присед
16:41:29.450000,329,267,0,присед
16:41:29.450000,329,319,0,присед
16:41:29.451000,329,284,0,присед
16:41:29.452000,329,188,0,присед
16:41:29.453000,329,192,0,присед
16:41:29.453000,329,160,0,присед
16:41:29.454000,329,39,0,присед
16:41:29.455000,329,22,0,присед
16:41:29.456000,329,32,0,присед
16:41:29.458000,329,-56,0,присед
16:41:29.459000,329,-91,0,присед
16:41:29.460000,329,-39,0,присед
16:41:29.461000,329,-14,0,присед
16:41:29.462000,329,-49,0,присед
16:41:29.462000,329,-91,0,присед
16:41:29.463000,329,-49,0,присед
16:41:29.464000,329,-12,0,присед
16:41:29.464000,329,-79,0,присед
16:41:29.466000,329,-84,0,присед
16:41:29.466000,329,14,0,присед
16:41:29.467000,329,14,0,присед
16:41:29.468000,329,-96,0,присед
16:41:29.469000,329,-91,0,присед
16:41:29.470000,329,-14,0,присед
16:41:29.471000,329,-9,0,присед
16:41:29.471000,329,-7,0,присед
16:41:29.472000,329,7,0,присед
16:41:29.473000,329,27,0,присед
16:41:29.474000,329,0,0,присед
16:41:29.475000,329,-61,0,присед
16:41:29.475000,329,-101,0,присед
16:41:29.476000,329,-158,0,присед
16:41:29.477000,329,-7,0,присед
16:41:29.478000,329,593,0,присед
16:41:29.478000,329,1286,0,присед
16:41:29.505000,337,1286,0,присед
16:41:29.605000,338,1286,0,присед
16:41:29.725000,307,1286,0,присед
16:41:29.803000,302,1286,0,присед
16:41:29.903000,317,1286,0,присед
16:41:29.914000,317,1365,0,присед
16:41:29.916000,317,700,0,присед
16:41:29.917000,317,84,0,присед
16:41:29.918000,317,37,0,присед
16:41:29.919000,317,91,0,присед
16:41:29.920000,317,-14,0,присед
16:41:29.921000,317,-39,0,присед
16:41:29.921000,317,-2,0,присед
16:41:29.922000,317,0,0,присед
16:41:29.923000,317,4,0,присед
16:41:29.925000,317,14,0,присед
16:41:29.926000,317,17,0,присед
16:41:29.927000,317,29,0,присед
16:41:29.927000,317,54,0,присед
16:41:29.928000,317,81,0,присед
16:41:29.929000,317,84,0,присед
16:41:29.930000,317,86,0,присед
16:41:29.931000,317,113,0,присед
16:41:29.931000,317,128,0,присед
16:41:29.932000,317,136,0,присед
16:41:29.933000,317,168,0,присед
16:41:29.934000,317,197,0,присед
16:41:29.934000,317,217,0,присед
16:41:29.935000,317,235,0,присед
16:41:29.936000,317,259,0,присед
16:41:29.937000,317,304,0,присед
16:41:29.938000,317,331,0,присед
16:41:29.938000,317,338,0,присед
16:41:29.940000,317,358,0,присед
16:41:29.941000,317,383,0,присед
16:41:29.942000,317,366,0,присед
16:41:29.943000,317,311,0,присед
16:41:29.944000,317,244,0,присед
16:41:29.945000,317,178,0,присед
16:41:29.946000,317,131,0,присед
16:41:29.947000,317,103,0,присед
16:41:29.947000,317,69,0,присед
16:41:29.948000,317,42,0,присед
16:41:29.949000,317,49,0,присед
16:41:29.949000,317,59,0,присед
16:41:29.950000,317,37,0,присед
16:41:29.951000,317,12,0,присед
16:41:29.952000,317,12,0,присед
16:41:29.952000,317,12,0,присед
16:41:29.953000,317,0,0,присед
16:41:29.954000,317,-17,0,присед
16:41:29.955000,317,-29,0,присед
16:41:29.956000,317,-24,0,присед
16:41:29.957000,317,-14,0,присед
16:41:29.958000,317,-7,0,присед
16:41:29.958000,317,2,0,присед
16:41:29.959000,317,27,0,присед
16:41:29.960000,317,27,0,присед
16:41:29.961000,317,-24,0,присед
16:41:29.962000,317,-64,0,присед
16:41:29.962000,317,-56,0,присед
16:41:29.963000,317,-37,0,присед
16:41:29.964000,317,-29,0,присед
16:41:29.965000,317,-42,0,присед
16:41:29.965000,317,-118,0,присед
16:41:29.966000,317,-200,0,присед
16:41:29.967000,317,-34,0,присед
16:41:29.968000,317,467,0,присед
16:41:29.968000,317,1004,0,присед
16:41:29.969000,317,1061,0,присед
16:41:29.970000,317,526,0,присед
16:41:29.971000,317,24,0,присед
16:41:29.971000,317,-9,0,присед
16:41:29.972000,317,22,0,присед
16:41:29.973000,317,-98,0,присед
16:41:29.974000,317,-123,0,присед
16:41:29.975000,317,-71,0,присед
16:41:29.976000,317,-79,0,присед
16:41:30.004000,275,-79,0,присед
16:41:30.094000,285,-79,0,присед
16:41:30.193000,301,-79,0,присед
16:41:30.293000,270,-79,0,присед
16:41:30.395000,272,-79,0,присед
16:41:30.500000,272,-89,0,присед
16:41:30.501000,272,-64,0,присед
16:41:30.502000,272,-54,0,присед
16:41:30.503000,272,-56,0,присед
16:41:30.504000,272,-44,0,присед
16:41:30.505000,272,-24,0,присед
16:41:30.516000,272,-22,0,присед
16:41:30.516000,272,-17,0,присед
16:41:30.517000,272,-4,0,присед
16:41:30.518000,272,7,0,присед
16:41:30.519000,272,19,0,присед
16:41:30.520000,272,34,0,присед
16:41:30.521000,272,47,0,присед
16:41:30.522000,272,61,0,присед
16:41:30.523000,272,81,0,присед
16:41:30.524000,272,103,0,присед
16:41:30.525000,272,121,0,присед
16:41:30.526000,272,133,0,присед
16:41:30.527000,272,141,0,присед
16:41:30.528000,272,148,0,присед
16:41:30.528000,272,141,0,присед
16:41:30.529000,272,126,0,присед
16:41:30.530000,272,98,0,присед
16:41:30.531000,272,49,0,присед
16:41:30.532000,272,-9,0,присед
16:41:30.532000,272,-61,0,присед
16:41:30.533000,272,-108,0,присед
16:41:30.534000,272,-145,0,присед
16:41:30.535000,272,-160,0,присед
16:41:30.536000,272,-165,0,присед
16:41:30.537000,272,-168,0,присед
16:41:30.538000,272,-163,0,присед
16:41:30.539000,272,-155,0,присед
16:41:30.540000,272,-153,0,присед
16:41:30.541000,272,-143,0,присед
16:41:30.541000,272,-133,0,присед
16:41:30.542000,272,-133,0,присед
16:41:30.543000,272,-136,0,присед
16:41:30.544000,272,-128,0,присед
16:41:30.545000,272,-123,0,присед
16:41:30.546000,272,-128,0,присед
16:41:30.546000,272,-121,0,присед
16:41:30.547000,272,-103,0,присед
16:41:30.548000,272,-89,0,присед
16:41:30.549000,272,-71,0,присед
16:41:30.550000,272,-54,0,присед
16:41:30.551000,272,-51,0,присед
16:41:30.552000,272,-64,0,присед
16:41:30.552000,272,-59,0,присед
16:41:30.553000,272,-32,0,присед
16:41:30.554000,272,-29,0,присед
16:41:30.555000,272,-37,0,присед
16:41:30.555000,272,-29,0,присед
16:41:30.556000,272,-79,0,присед
16:41:30.557000,272,-185,0,присед
16:41:30.558000,272,-84,0,присед
16:41:30.559000,272,393,0,присед
16:41:30.560000,272,967,0,присед
16:41:30.560000,272,1088,0,присед
16:41:30.561000,272,596,0,присед
16:41:30.562000,272,81,0,присед
16:41:30.562000,272,19,0,присед
16:41:30.563000,272,56,0,присед
16:41:30.564000,272,-44,0,присед
16:41:30.565000,272,-71,0,присед
16:41:30.566000,272,-29,0,присед
16:41:30.566000,272,-29,0,присед
16:41:30.567000,272,-27,0,присед
16:41:30.568000,272,-4,0,присед
16:41:30.569000,272,17,0,присед
16:41:30.570000,272,34,0,присед
16:41:30.571000,272,44,0,присед
16:41:30.571000,272,59,0,присед
16:41:30.573000,275,59,0,присед
16:41:30.606000,266,59,0,присед
16:41:30.706000,264,59,0,присед
16:41:30.828000,276,59,0,присед
16:41:30.907000,281,59,0,присед
16:41:31.005000,262,59,0,присед
16:41:31.040000,262,76,0,присед
16:41:31.041000,262,81,0,присед
16:41:31.042000,262,89,0,присед
16:41:31.043000,262,108,0,присед
16:41:31.044000,262,126,0,присед
16:41:31.045000,262,141,0,присед
16:41:31.046000,262,170,0,присед
16:41:31.047000,262,192,0,присед
16:41:31.048000,262,217,0,присед
16:41:31.049000,262,257,0,присед
16:41:31.050000,262,272,0,присед
16:41:31.050000,262,264,0,присед
16:41:31.051000,262,291,0,присед
16:41:31.052000,262,326,0,присед
16:41:31.052000,262,343,0,присед
16:41:31.053000,262,358,0,присед
16:41:31.054000,262,356,0,присед
16:41:31.055000,262,333,0,присед
16:41:31.056000,262,309,0,присед
16:41:31.057000,262,284,0,присед
16:41:31.058000,262,254,0,присед
16:41:31.059000,262,225,0,присед
16:41:31.060000,262,215,0,присед
16:41:31.061000,262,230,0,присед
16:41:31.062000,262,237,0,присед
16:41:31.063000,262,235,0,присед
16:41:31.064000,262,239,0,присед
16:41:31.065000,262,242,0,присед
16:41:31.065000,262,232,0,присед
16:41:31.066000,262,222,0,присед
16:41:31.067000,262,232,0,присед
16:41:31.068000,262,249,0,присед
16:41:31.069000,262,259,0,присед
16:41:31.069000,262,264,0,присед
16:41:31.070000,262,264,0,присед
16:41:31.071000,262,264,0,присед
16:41:31.072000,262,239,0,присед
16:41:31.073000,262,197,0,присед
16:41:31.074000,262,200,0,присед
16:41:31.075000,262,232,0,присед
16:41:31.076000,262,232,0,присед
16:41:31.077000,262,222,0,присед
16:41:31.077000,262,225,0,присед
16:41:31.078000,262,230,0,присед
16:41:31.079000,262,220,0,присед
16:41:31.080000,262,195,0,присед
16:41:31.081000,262,175,0,присед
16:41:31.081000,262,145,0,присед
16:41:31.082000,262,113,0,присед
16:41:31.083000,262,47,0,присед
16:41:31.084000,262,-9,0,присед
16:41:31.084000,262,220,0,присед
16:41:31.085000,262,779,0,присед
16:41:31.086000,262,1214,0,присед
16:41:31.086000,262,1041,0,присед
16:41:31.087000,262,430,0,присед
16:41:31.088000,262,56,0,присед
16:41:31.089000,262,81,0,присед
16:41:31.090000,262,42,0,присед
16:41:31.090000,262,-123,0,присед
16:41:31.091000,262,-133,0,присед
16:41:31.092000,262,-74,0,присед
16:41:31.093000,262,-106,0,присед
16:41:31.093000,262,-118,0,присед
16:41:31.094000,262,-91,0,присед
16:41:31.095000,262,-113,0,присед
16:41:31.096000,262,-143,0,присед
16:41:31.097000,262,-150,0,присед
16:41:31.097000,262,-158,0,присед
16:41:31.098000,262,-141,0,присед
16:41:31.099000,262,-141,0,присед
16:41:31.099000,262,-163,0,присед
16:41:31.100000,262,-150,0,присед
16:41:31.111000,264,-150,0,присед
16:41:31.196000,280,-150,0,присед
16:41:31.295000,313,-150,0,присед
16:41:31.394000,280,-150,0,присед
16:41:31.496000,280,-150,0,присед
16:41:31.580000,280,-123,0,присед
16:41:31.581000,280,-143,0,присед
16:41:31.582000,280,-180,0,присед
16:41:31.582000,280,-197,0,присед
16:41:31.583000,280,-220,0,присед
16:41:31.584000,280,-192,0,присед
16:41:31.584000,280,-126,0,присед
16:41:31.585000,280,-133,0,присед
16:41:31.586000,280,-136,0,присед
16:41:31.587000,280,-84,0,присед
16:41:31.587000,280,-101,0,присед
16:41:31.588000,280,-153,0,присед
16:41:31.589000,280,-160,0,присед
16:41:31.590000,280,-195,0,присед
16:41:31.591000,280,-239,0,присед
16:41:31.592000,280,-259,0,присед
16:41:31.593000,280,-264,0,присед
16:41:31.594000,280,-225,0,присед
16:41:31.594000,280,-217,0,присед
16:41:31.595000,280,-291,0,присед
16:41:31.596000,280,-341,0,присед
16:41:31.597000,280,-333,0,присед
16:41:31.597000,280,-249,0,присед
16:41:31.598000,280,-116,0,присед
16:41:31.599000,280,-111,0,присед
16:41:31.600000,280,-183,0,присед
16:41:31.601000,280,-160,0,присед
16:41:31.602000,280,-136,0,присед
16:41:31.602000,280,-200,0,присед
16:41:31.603000,280,-291,0,присед
16:41:31.604000,280,-291,0,присед
16:41:31.604000,280,-252,0,присед
16:41:31.605000,280,-269,0,присед
16:41:31.606000,280,-217,0,присед
16:41:31.607000,280,-143,0,присед
16:41:31.608000,280,-239,0,присед
16:41:31.609000,280,-346,0,присед
16:41:31.610000,280,-158,0,присед
16:41:31.611000,280,118,0,присед
16:41:31.611000,280,116,0,присед
16:41:31.612000,280,71,0,присед
16:41:31.613000,280,103,0,присед
16:41:31.614000,280,-17,0,присед
16:41:31.615000,280,7,0,присед
16:41:31.615000,280,484,0,присед
16:41:31.616000,280,1041,0,присед
16:41:31.617000,280,1189,0,присед
16:41:31.618000,280,759,0,присед
16:41:31.619000,280,178,0,присед
16:41:31.619000,280,66,0,присед
16:41:31.620000,280,168,0,присед
16:41:31.620000,280,74,0,присед
16:41:31.621000,280,9,0,присед
16:41:31.621000,280,51,0,присед
16:41:31.622000,280,-2,0,присед
16:41:31.622000,280,-51,0,присед
16:41:31.623000,280,12,0,присед
16:41:31.623000,280,47,0,присед
16:41:31.624000,280,29,0,присед
16:41:31.624000,280,34,0,присед
16:41:31.625000,280,59,0,присед
16:41:31.625000,280,66,0,присед
16:41:31.625000,280,54,0,присед
16:41:31.626000,280,61,0,присед
16:41:31.626000,280,39,0,присед
16:41:31.627000,280,-27,0,присед
16:41:31.627000,280,-56,0,присед
16:41:31.627000,280,-37,0,присед
16:41:31.628000,280,9,0,присед
16:41:31.628000,280,66,0,присед
16:41:31.629000,280,101,0,присед
16:41:31.629000,280,-44,0,присед
16:41:31.630000,280,-371,0,присед
16:41:31.631000,253,-371,0,присед
16:41:31.709000,250,-371,0,присед
16:41:31.810000,256,-371,0,присед
16:41:31.930000,262,-371,0,присед
16:41:32.008000,262,-371,0,присед
16:41:32.106000,273,-371,0,присед
16:41:32.210000,273,-390,0,присед
16:41:32.211000,273,37,0,присед
16:41:32.212000,273,286,0,присед
16:41:32.213000,273,64,0,присед
16:41:32.213000,273,-254,0,присед
16:41:32.214000,273,-348,0,присед
16:41:32.215000,273,-237,0,присед
16:41:32.216000,273,-44,0,присед
16:41:32.217000,273,91,0,присед
16:41:32.217000,273,133,0,присед
16:41:32.218000,273,178,0,присед
16:41:32.219000,273,212,0,присед
16:41:32.220000,273,227,0,присед
16:41:32.221000,273,259,0,присед
16:41:32.222000,273,259,0,присед
16:41:32.223000,273,242,0,присед
16:41:32.223000,273,247,0,присед
16:41:32.225000,273,239,0,присед
16:41:32.225000,273,202,0,присед
16:41:32.226000,273,170,0,присед
16:41:32.227000,273,175,0,присед
16:41:32.228000,273,185,0,присед
16:41:32.228000,273,170,0,присед
16:41:32.229000,273,180,0,присед
16:41:32.230000,273,197,0,присед
16:41:32.231000,273,173,0,присед
16:41:32.231000,273,150,0,присед
16:41:32.232000,273,155,0,присед
16:41:32.233000,273,153,0,присед
16:41:32.234000,273,150,0,присед
16:41:32.235000,273,163,0,присед
16:41:32.236000,273,170,0,присед
16:41:32.236000,273,141,0,присед
16:41:32.237000,273,47,0,присед
16:41:32.239000,273,-51,0,присед
16:41:32.241000,273,49,0,присед
16:41:32.242000,273,467,0,присед
16:41:32.242000,273,977,0,присед
16:41:32.243000,273,1130,0,присед
16:41:32.244000,273,712,0,присед
16:41:32.245000,273,185,0,присед
16:41:32.245000,273,94,0,присед
16:41:32.246000,273,158,0,присед
16:41:32.247000,273,69,0,присед
16:41:32.247000,273,34,0,присед
16:41:32.248000,273,79,0,присед
16:41:32.249000,273,66,0,присед
16:41:32.250000,273,49,0,присед
16:41:32.250000,273,69,0,присед
16:41:32.251000,273,86,0,присед
16:41:32.252000,273,94,0,присед
16:41:32.253000,273,98,0,присед
16:41:32.254000,273,108,0,присед
16:41:32.255000,273,121,0,присед
16:41:32.256000,273,133,0,присед
16:41:32.257000,273,141,0,присед
16:41:32.257000,273,143,0,присед
16:41:32.258000,273,153,0,присед
16:41:32.259000,273,168,0,присед
16:41:32.260000,273,190,0,присед
16:41:32.260000,273,212,0,присед
16:41:32.261000,273,200,0,присед
16:41:32.262000,273,192,0,присед
16:41:32.263000,273,239,0,присед
16:41:32.264000,273,282,0,присед
16:41:32.264000,273,279,0,присед
16:41:32.265000,273,282,0,присед
16:41:32.266000,273,289,0,присед
16:41:32.267000,273,282,0,присед
16:41:32.267000,273,262,0,присед
16:41:32.268000,273,239,0,присед
16:41:32.269000,273,205,0,присед
16:41:32.270000,273,163,0,присед
16:41:32.271000,279,163,0,присед
16:41:32.299000,264,163,0,присед
16:41:32.399000,280,163,0,присед
16:41:32.498000,281,163,0,присед
16:41:32.596000,278,163,0,присед
16:41:32.713000,279,163,0,присед
16:41:32.750000,279,123,0,присед
16:41:32.751000,279,89,0,присед
16:41:32.752000,279,69,0,присед
16:41:32.753000,279,61,0,присед
16:41:32.753000,279,54,0,присед
16:41:32.754000,279,42,0,присед
16:41:32.755000,279,22,0,присед
16:41:32.755000,279,9,0,присед
16:41:32.756000,279,7,0,присед
16:41:32.758000,279,-24,0,присед
16:41:32.759000,279,-64,0,присед
16:41:32.760000,279,-34,0,присед
16:41:32.761000,279,-19,0,присед
16:41:32.761000,279,-96,0,присед
16:41:32.762000,279,-227,0,присед
16:41:32.763000,279,-210,0,присед
16:41:32.763000,279,-7,0,присед
16:41:32.764000,279,22,0,присед
16:41:32.765000,279,-64,0,присед
16:41:32.766000,279,-17,0,присед
16:41:32.767000,279,7,0,присед
16:41:32.768000,279,-34,0,присед
16:41:32.769000,279,-59,0,присед
16:41:32.769000,279,-121,0,присед
16:41:32.770000,279,-336,0,присед
16:41:32.771000,279,-514,0,присед
16:41:32.772000,279,-395,0,присед
16:41:32.773000,279,-415,0,присед
16:41:32.774000,279,-630,0,присед
16:41:32.775000,279,-262,0,присед
16:41:32.776000,279,526,0,присед
16:41:32.777000,279,997,0,присед
16:41:32.778000,279,1147,0,присед
16:41:32.778000,279,937,0,присед
16:41:32.779000,279,329,0,присед
16:41:32.780000,279,-81,0,присед
16:41:32.781000,279,-24,0,присед
16:41:32.781000,279,123,0,присед
16:41:32.782000,279,56,0,присед
16:41:32.783000,279,-66,0,присед
16:41:32.784000,279,-111,0,присед
16:41:32.784000,279,-143,0,присед
16:41:32.785000,279,-148,0,присед
16:41:32.786000,279,-103,0,присед
16:41:32.787000,279,-34,0,присед
16:41:32.788000,279,-12,0,присед
16:41:32.788000,279,-84,0,присед
16:41:32.789000,279,-163,0,присед
16:41:32.790000,279,-175,0,присед
16:41:32.791000,279,-155,0,присед
16:41:32.792000,279,-141,0,присед
16:41:32.793000,279,-133,0,присед
16:41:32.793000,279,-133,0,присед
16:41:32.794000,279,-131,0,присед
16:41:32.795000,279,-106,0,присед
16:41:32.796000,279,-66,0,присед
16:41:32.797000,279,-39,0,присед
16:41:32.797000,279,-22,0,присед
16:41:32.798000,279,-4,0,присед
16:41:32.799000,279,17,0,присед
16:41:32.800000,279,37,0,присед
16:41:32.810000,279,14,0,присед
16:41:32.811000,279,-22,0,присед
16:41:32.812000,279,2,0,присед
16:41:32.813000,279,37,0,присед
16:41:32.814000,279,17,0,присед
16:41:32.814000,279,-2,0,присед
16:41:32.815000,279,2,0,присед
16:41:32.816000,279,-14,0,присед
16:41:32.817000,279,-61,0,присед
16:41:32.818000,279,-64,0,присед
16:41:32.819000,279,-32,0,присед
16:41:32.820000,279,-17,0,присед
16:41:32.821000,272,-17,0,присед
16:41:32.911000,279,-17,0,присед
16:41:33.033000,287,-17,0,присед
16:41:33.111000,272,-17,0,присед
16:41:33.210000,297,-17,0,присед
16:41:33.309000,274,-17,0,присед
16:41:33.335000,274,-24,0,присед
16:41:33.336000,274,-22,0,присед
16:41:33.337000,274,-9,0,присед
16:41:33.337000,274,-9,0,присед
16:41:33.338000,274,-22,0,присед
16:41:33.339000,274,-49,0,присед
16:41:33.340000,274,-66,0,присед
16:41:33.341000,274,-47,0,присед
16:41:33.342000,274,-24,0,присед
16:41:33.342000,274,-14,0,присед
16:41:33.343000,274,0,0,присед
16:41:33.344000,274,22,0,присед
16:41:33.345000,274,17,0,присед
16:41:33.346000,274,-2,0,присед
16:41:33.346000,274,-2,0,присед
16:41:33.347000,274,14,0,присед
16:41:33.348000,274,34,0,присед
16:41:33.349000,274,34,0,присед
16:41:33.350000,274,12,0,присед
16:41:33.350000,274,17,0,присед
16:41:33.351000,274,39,0,присед
16:41:33.352000,274,2,0,присед
16:41:33.353000,274,-84,0,присед
16:41:33.353000,274,-69,0,присед
16:41:33.354000,274,197,0,присед
16:41:33.355000,274,677,0,присед
16:41:33.355000,274,1048,0,присед
16:41:33.356000,274,870,0,присед
16:41:33.358000,274,291,0,присед
16:41:33.359000,274,-4,0,присед
16:41:33.360000,274,24,0,присед
16:41:33.360000,274,-9,0,присед
16:41:33.361000,274,-51,0,присед
16:41:33.362000,274,-9,0,присед
16:41:33.362000,274,-2,0,присед
16:41:33.363000,274,-7,0,присед
16:41:33.363000,274,-4,0,присед
16:41:33.364000,274,-27,0,присед
16:41:33.365000,274,-29,0,присед
16:41:33.366000,274,-22,0,присед
16:41:33.367000,274,-44,0,присед
16:41:33.368000,274,-44,0,присед
16:41:33.368000,274,-9,0,присед
16:41:33.369000,274,9,0,присед
16:41:33.370000,274,-19,0,присед
16:41:33.371000,274,-44,0,присед
16:41:33.371000,274,-32,0,присед
16:41:33.372000,274,-19,0,присед
16:41:33.373000,274,-2,0,присед
16:41:33.374000,274,-7,0,присед
16:41:33.375000,274,-34,0,присед
16:41:33.376000,274,-4,0,присед
16:41:33.376000,274,49,0,присед
16:41:33.377000,274,47,0,присед
16:41:33.378000,274,32,0,присед
16:41:33.379000,274,59,0,присед
16:41:33.379000,274,118,0,присед
16:41:33.380000,274,101,0,присед
16:41:33.381000,274,-17,0,присед
16:41:33.381000,274,-47,0,присед
16:41:33.382000,274,-2,0,присед
16:41:33.383000,274,-42,0,присед
16:41:33.383000,274,-86,0,присед
16:41:33.384000,274,-81,0,присед
16:41:33.384000,274,-106,0,присед
16:41:33.385000,274,-168,0,присед
16:41:33.385000,274,-190,0,присед
16:41:33.385000,274,-145,0,присед
16:41:33.386000,274,-126,0,присед
16:41:33.386000,274,-195,0,присед
16:41:33.387000,274,-220,0,присед
16:41:33.388000,274,-185,0,присед
16:41:33.389000,274,-192,0,присед
16:41:33.400000,298,-192,0,присед
16:41:33.500000,361,-192,0,присед
16:41:33.599000,329,-192,0,присед
16:41:33.700000,327,-192,0,присед
16:41:33.791000,291,-192,0,присед
16:41:33.875000,291,-178,0,присед
16:41:33.876000,291,-180,0,присед
16:41:33.877000,291,-264,0,присед
16:41:33.878000,291,-237,0,присед
16:41:33.879000,291,-136,0,присед
16:41:33.879000,291,-168,0,присед
16:41:33.880000,291,-195,0,присед
16:41:33.881000,291,-141,0,присед
16:41:33.882000,291,-148,0,присед
16:41:33.883000,291,-195,0,присед
16:41:33.884000,291,-217,0,присед
16:41:33.885000,291,-215,0,присед
16:41:33.885000,291,-205,0,присед
16:41:33.886000,291,-210,0,присед
16:41:33.887000,291,-230,0,присед
16:41:33.888000,291,-294,0,присед
16:41:33.889000,291,-363,0,присед
16:41:33.890000,291,-200,0,присед
16:41:33.891000,291,291,0,присед
16:41:33.891000,291,754,0,присед
16:41:33.892000,291,665,0,присед
16:41:33.893000,291,94,0,присед
16:41:33.894000,291,-262,0,присед
16:41:33.895000,291,-188,0,присед
16:41:33.896000,291,-183,0,присед
16:41:33.897000,291,-301,0,присед
16:41:33.897000,291,-301,0,присед
16:41:33.898000,291,-279,0,присед
16:41:33.899000,291,-279,0,присед
16:41:33.900000,291,-254,0,присед
16:41:33.901000,291,-237,0,присед
16:41:33.902000,291,-247,0,присед
16:41:33.902000,291,-262,0,присед
16:41:33.903000,291,-277,0,присед
16:41:33.904000,291,-235,0,присед
16:41:33.905000,291,-210,0,присед
16:41:33.905000,291,-272,0,присед
16:41:33.907000,291,-269,0,присед
16:41:33.907000,291,-190,0,присед
16:41:33.908000,291,-180,0,присед
16:41:33.908000,291,-190,0,присед
16:41:33.909000,291,-150,0,присед
16:41:33.909000,291,-121,0,присед
16:41:33.910000,291,-118,0,присед
16:41:33.910000,291,-113,0,присед
16:41:33.911000,291,-98,0,присед
16:41:33.912000,291,-56,0,присед
16:41:33.912000,291,-9,0,присед
16:41:33.913000,291,7,0,присед
16:41:33.913000,291,4,0,присед
16:41:33.914000,291,2,0,присед
16:41:33.914000,291,-9,0,присед
16:41:33.915000,291,-51,0,присед
16:41:33.915000,291,-98,0,присед
16:41:33.915000,291,-136,0,присед
16:41:33.916000,291,-173,0,присед
16:41:33.916000,291,-210,0,присед
16:41:33.917000,291,-227,0,присед
16:41:33.917000,291,-232,0,присед
16:41:33.918000,291,-247,0,присед
16:41:33.918000,291,-244,0,присед
16:41:33.918000,291,-222,0,присед
16:41:33.919000,291,-225,0,присед
16:41:33.919000,291,-227,0,присед
16:41:33.920000,291,-220,0,присед
16:41:33.920000,291,-220,0,присед
16:41:33.921000,291,-227,0,присед
16:41:33.921000,291,-225,0,присед
16:41:33.922000,291,-210,0,присед
16:41:33.922000,291,-178,0,присед
16:41:33.923000,291,-148,0,присед
16:41:33.923000,291,-131,0,присед
16:41:33.924000,291,-123,0,присед
16:41:33.925000,322,-123,0,присед
16:41:34.014000,341,-123,0,присед
16:41:34.135000,317,-123,0,присед
16:41:34.213000,286,-123,0,присед
16:41:34.336000,327,-123,0,присед
16:41:34.415000,327,-123,0,присед
16:41:34.416000,327,-116,0,присед
16:41:34.417000,327,-98,0,присед
16:41:34.418000,327,-86,0,присед
16:41:34.419000,327,-86,0,присед
16:41:34.420000,327,-84,0,присед
16:41:34.421000,327,-96,0,присед
16:41:34.422000,327,-173,0,присед
16:41:34.424000,327,-227,0,присед
16:41:34.425000,327,-4,0,присед
16:41:34.425000,327,517,0,присед
16:41:34.426000,327,937,0,присед
16:41:34.427000,327,796,0,присед
16:41:34.428000,327,212,0,присед
16:41:34.429000,327,-116,0,присед
16:41:34.429000,327,-47,0,присед
16:41:34.430000,327,-56,0,присед
16:41:34.431000,327,-155,0,присед
16:41:34.432000,327,-136,0,присед
16:41:34.433000,327,-111,0,присед
16:41:34.433000,327,-133,0,присед
16:41:34.434000,327,-126,0,присед
16:41:34.435000,327,-101,0,присед
16:41:34.436000,327,-86,0,присед
16:41:34.437000,327,-81,0,присед
16:41:34.438000,327,-69,0,присед
16:41:34.439000,327,-49,0,присед
16:41:34.440000,327,-42,0,присед
16:41:34.441000,327,-42,0,присед
16:41:34.442000,327,-27,0,присед
16:41:34.443000,327,-17,0,присед
16:41:34.443000,327,-7,0,присед
16:41:34.444000,327,7,0,присед
16:41:34.445000,327,27,0,присед
16:41:34.446000,327,47,0,присед
16:41:34.446000,327,64,0,присед
16:41:34.447000,327,84,0,присед
16:41:34.448000,327,101,0,присед
16:41:34.449000,327,111,0,присед
16:41:34.450000,327,121,0,присед
16:41:34.450000,327,128,0,присед
16:41:34.451000,327,126,0,присед
16:41:34.452000,327,116,0,присед
16:41:34.453000,327,96,0,присед
16:41:34.453000,327,56,0,присед
16:41:34.454000,327,7,0,присед
16:41:34.455000,327,-44,0,присед
16:41:34.455000,327,-89,0,присед
16:41:34.456000,327,-116,0,присед
16:41:34.457000,327,-138,0,присед
16:41:34.458000,327,-163,0,присед
16:41:34.459000,327,-168,0,присед
16:41:34.460000,327,-158,0,присед
16:41:34.461000,327,-155,0,присед
16:41:34.461000,327,-155,0,присед
16:41:34.462000,327,-150,0,присед
16:41:34.463000,327,-143,0,присед
16:41:34.464000,327,-143,0,присед
16:41:34.465000,327,-143,0,присед
16:41:34.466000,327,-143,0,присед
16:41:34.466000,327,-138,0,присед
16:41:34.467000,327,-133,0,присед
16:41:34.468000,327,-126,0,присед
16:41:34.469000,327,-116,0,присед
16:41:34.470000,327,-116,0,присед
16:41:34.470000,327,-121,0,присед
16:41:34.471000,327,-118,0,присед
16:41:34.472000,327,-118,0,присед
16:41:34.473000,327,-121,0,присед
16:41:34.474000,327,-116,0,присед
16:41:34.475000,327,-116,0,присед
16:41:34.476000,327,-155,0,присед
16:41:34.477000,327,-257,0,присед
16:41:34.479000,299,-257,0,присед
16:41:34.503000,312,-257,0,присед
16:41:34.602000,259,-257,0,присед
16:41:34.704000,386,-257,0,присед
16:41:34.803000,298,-257,0,присед
16:41:34.894000,300,-257,0,присед
16:41:34.992000,288,-257,0,присед
16:41:34.999000,288,-301,0,присед
16:41:35,288,-61,0,присед
16:41:35.001000,288,462,0,присед
16:41:35.002000,288,883,0,присед
16:41:35.003000,288,747,0,присед
16:41:35.003000,288,178,0,присед
16:41:35.004000,288,-158,0,присед
16:41:35.005000,288,-126,0,присед
16:41:35.006000,288,-165,0,присед
16:41:35.007000,288,-274,0,присед
16:41:35.007000,288,-252,0,присед
16:41:35.008000,288,-222,0,присед
16:41:35.009000,288,-247,0,присед
16:41:35.010000,288,-242,0,присед
16:41:35.011000,288,-217,0,присед
16:41:35.012000,288,-210,0,присед
16:41:35.013000,288,-205,0,присед
16:41:35.014000,288,-185,0,присед
16:41:35.014000,288,-175,0,присед
16:41:35.015000,288,-170,0,присед
16:41:35.016000,288,-155,0,присед
16:41:35.017000,288,-136,0,присед
16:41:35.017000,288,-121,0,присед
16:41:35.018000,288,-108,0,присед
16:41:35.019000,288,-94,0,присед
16:41:35.020000,288,-79,0,присед
16:41:35.021000,288,-59,0,присед
16:41:35.022000,288,-42,0,присед
16:41:35.024000,288,-24,0,присед
16:41:35.024000,288,-7,0,присед
16:41:35.025000,288,0,0,присед
16:41:35.026000,288,0,0,присед
16:41:35.027000,288,2,0,присед
16:41:35.028000,288,7,0,присед
16:41:35.029000,288,14,0,присед
16:41:35.030000,288,4,0,присед
16:41:35.030000,288,-51,0,присед
16:41:35.031000,288,-148,0,присед
16:41:35.032000,288,-215,0,присед
16:41:35.033000,288,-212,0,присед
16:41:35.034000,288,-200,0,присед
16:41:35.035000,288,-212,0,присед
16:41:35.036000,288,-212,0,присед
16:41:35.037000,288,-118,0,присед
16:41:35.039000,288,178,0,присед
16:41:35.040000,288,591,0,присед
16:41:35.041000,288,531,0,присед
16:41:35.041000,288,-141,0,присед
16:41:35.042000,288,-440,0,присед
16:41:35.042000,288,-217,0,присед
16:41:35.043000,288,-227,0,присед
16:41:35.043000,288,-356,0,присед
16:41:35.043000,288,-286,0,присед
16:41:35.044000,288,-239,0,присед
16:41:35.044000,288,-259,0,присед
16:41:35.045000,288,-200,0,присед
16:41:35.045000,288,-131,0,присед
16:41:35.045000,288,-145,0,присед
16:41:35.046000,288,-180,0,присед
16:41:35.046000,288,-183,0,присед
16:41:35.047000,288,-170,0,присед
16:41:35.047000,288,-148,0,присед
16:41:35.048000,288,-126,0,присед
16:41:35.048000,288,-123,0,присед
16:41:35.049000,288,-163,0,присед
16:41:35.049000,288,-277,0,присед
16:41:35.050000,288,-304,0,присед
16:41:35.050000,288,19,0,присед
16:41:35.050000,288,613,0,присед
16:41:35.051000,288,972,0,присед
16:41:35.052000,288,695,0,присед
16:41:35.052000,288,121,0,присед
16:41:35.053000,288,-101,0,присед
16:41:35.096000,327,-101,0,присед
16:41:35.195000,289,-101,0,присед
16:41:35.309000,292,-101,0,присед
16:41:35.411000,273,-101,0,присед
16:41:35.511000,371,-101,0,присед
16:41:35.605000,330,-101,0,присед
16:41:35.674000,330,-44,0,присед
16:41:35.675000,330,-106,0,присед
16:41:35.676000,330,-183,0,присед
16:41:35.677000,330,-141,0,присед
16:41:35.678000,330,-108,0,присед
16:41:35.679000,330,-101,0,присед
16:41:35.679000,330,9,0,присед
16:41:35.680000,330,242,0,присед
16:41:35.681000,330,484,0,присед
16:41:35.682000,330,534,0,присед
16:41:35.683000,330,116,0,присед
16:41:35.684000,330,-311,0,присед
16:41:35.685000,330,-153,0,присед
16:41:35.686000,330,47,0,присед
16:41:35.687000,330,-59,0,присед
16:41:35.688000,330,-91,0,присед
16:41:35.689000,330,-34,0,присед
16:41:35.689000,330,-12,0,присед
16:41:35.690000,330,34,0,присед
16:41:35.691000,330,225,0,присед
16:41:35.692000,330,638,0,присед
16:41:35.693000,330,860,0,присед
16:41:35.693000,330,380,0,присед
16:41:35.694000,330,-227,0,присед
16:41:35.695000,330,-165,0,присед
16:41:35.696000,330,49,0,присед
16:41:35.697000,330,-39,0,присед
16:41:35.698000,330,-59,0,присед
16:41:35.698000,330,-9,0,присед
16:41:35.699000,330,-64,0,присед
16:41:35.700000,330,-69,0,присед
16:41:35.700000,330,-14,0,присед
16:41:35.701000,330,-14,0,присед
16:41:35.701000,330,-64,0,присед
16:41:35.702000,330,-121,0,присед
16:41:35.702000,330,-96,0,присед
16:41:35.703000,330,-49,0,присед
16:41:35.703000,330,-163,0,присед
16:41:35.704000,330,-286,0,присед
16:41:35.704000,330,-205,0,присед
16:41:35.704000,330,-84,0,присед
16:41:35.705000,330,-94,0,присед
16:41:35.705000,330,-155,0,присед
16:41:35.706000,330,-160,0,присед
16:41:35.706000,330,-136,0,присед
16:41:35.707000,330,-128,0,присед
16:41:35.707000,330,-64,0,присед
16:41:35.708000,330,-22,0,присед
16:41:35.708000,330,-61,0,присед
16:41:35.708000,330,34,0,присед
16:41:35.709000,330,118,0,присед
16:41:35.709000,330,-42,0,присед
16:41:35.710000,330,-96,0,присед
16:41:35.710000,330,29,0,присед
16:41:35.710000,330,86,0,присед
16:41:35.711000,330,338,0,присед
16:41:35.711000,330,635,0,присед
16:41:35.712000,330,361,0,присед
16:41:35.712000,330,-145,0,присед
16:41:35.712000,330,-257,0,присед
16:41:35.713000,330,-76,0,присед
16:41:35.713000,330,272,0,присед
16:41:35.714000,330,813,0,присед
16:41:35.714000,330,1058,0,присед
16:41:35.715000,330,571,0,присед
16:41:35.715000,330,-49,0,присед
16:41:35.715000,330,-108,0,присед
16:41:35.716000,330,-7,0,присед
16:41:35.716000,330,-121,0,присед
16:41:35.717000,330,-118,0,присед
16:41:35.717000,330,-47,0,присед
16:41:35.717000,330,-202,0,присед
16:41:35.718000,330,-289,0,присед
16:41:35.718000,373,-289,0,присед
16:41:35.802000,377,-289,0,присед
16:41:35.905000,277,-289,0,присед
16:41:35.999000,289,-289,0,присед
16:41:36.098000,326,-289,0,присед
16:41:36.197000,354,-289,0,присед
16:41:36.214000,354,-150,0,присед
16:41:36.216000,354,-141,0,присед
16:41:36.217000,354,-212,0,присед
16:41:36.218000,354,-150,0,присед
16:41:36.219000,354,-145,0,присед
16:41:36.220000,354,-205,0,присед
16:41:36.221000,354,-178,0,присед
16:41:36.221000,354,-153,0,присед
16:41:36.222000,354,-178,0,присед
16:41:36.224000,354,-180,0,присед
16:41:36.225000,354,-116,0,присед
16:41:36.226000,354,-101,0,присед
16:41:36.226000,354,-148,0,присед
16:41:36.227000,354,-113,0,присед
16:41:36.228000,354,-56,0,присед
16:41:36.229000,354,-64,0,присед
16:41:36.230000,354,-56,0,присед
16:41:36.231000,354,-44,0,присед
16:41:36.232000,354,-66,0,присед
16:41:36.233000,354,-17,0,присед
16:41:36.234000,354,9,0,присед
16:41:36.234000,354,-69,0,присед
16:41:36.235000,354,-89,0,присед
16:41:36.236000,354,-86,0,присед
16:41:36.237000,354,-188,0,присед
16:41:36.238000,354,-252,0,присед
16:41:36.239000,354,-249,0,присед
16:41:36.240000,354,-282,0,присед
16:41:36.241000,354,-274,0,присед
16:41:36.242000,354,-264,0,присед
16:41:36.243000,354,-314,0,присед
16:41:36.244000,354,-306,0,присед
16:41:36.245000,354,-291,0,присед
16:41:36.246000,354,-319,0,присед
16:41:36.246000,354,-324,0,присед
16:41:36.247000,354,-351,0,присед
16:41:36.248000,354,-353,0,присед
16:41:36.249000,354,-304,0,присед
16:41:36.250000,354,-306,0,присед
16:41:36.250000,354,-311,0,присед
16:41:36.251000,354,-282,0,присед
16:41:36.252000,354,-279,0,присед
16:41:36.253000,354,-272,0,присед
16:41:36.254000,354,-252,0,присед
16:41:36.255000,354,-269,0,присед
16:41:36.256000,354,-294,0,присед
16:41:36.257000,354,-269,0,присед
16:41:36.258000,354,-235,0,присед
16:41:36.258000,354,-264,0,присед
16:41:36.259000,354,-368,0,присед
16:41:36.260000,354,-442,0,присед
16:41:36.261000,354,-259,0,присед
16:41:36.262000,354,239,0,присед
16:41:36.262000,354,690,0,присед
16:41:36.263000,354,618,0,присед
16:41:36.264000,354,64,0,присед
16:41:36.265000,354,-314,0,присед
16:41:36.265000,354,-252,0,присед
16:41:36.266000,354,-225,0,присед
16:41:36.267000,354,-336,0,присед
16:41:36.268000,354,-326,0,присед
16:41:36.269000,354,-284,0,присед
16:41:36.269000,354,-306,0,присед
16:41:36.270000,354,-299,0,присед
16:41:36.271000,354,-269,0,присед
16:41:36.272000,354,-267,0,присед
16:41:36.273000,354,-272,0,присед
16:41:36.274000,354,-269,0,присед
16:41:36.275000,354,-264,0,присед
16:41:36.276000,354,-254,0,присед
16:41:36.276000,354,-239,0,присед
16:41:36.277000,354,-237,0,присед
16:41:36.278000,354,-232,0,присед
16:41:36.297000,345,-232,0,присед
16:41:36.411000,344,-232,0,присед
16:41:36.510000,325,-232,0,присед
16:41:36.608000,308,-232,0,присед
16:41:36.709000,308,-212,0,присед
16:41:36.711000,308,-192,0,присед
16:41:36.712000,308,-178,0,присед
16:41:36.713000,308,-170,0,присед
16:41:36.714000,308,-150,0,присед
16:41:36.715000,308,-111,0,присед
16:41:36.716000,308,-86,0,присед
16:41:36.717000,308,-89,0,присед
16:41:36.718000,308,-91,0,присед
16:41:36.719000,308,-86,0,присед
16:41:36.719000,308,-94,0,присед
16:41:36.720000,308,-113,0,присед
16:41:36.721000,308,-153,0,присед
16:41:36.722000,308,-207,0,присед
16:41:36.723000,308,-262,0,присед
16:41:36.724000,308,-319,0,присед
16:41:36.726000,308,-368,0,присед
16:41:36.727000,308,-393,0,присед
16:41:36.727000,308,-405,0,присед
16:41:36.728000,308,-418,0,присед
16:41:36.729000,308,-425,0,присед
16:41:36.730000,308,-437,0,присед
16:41:36.730000,308,-452,0,присед
16:41:36.731000,308,-457,0,присед
16:41:36.732000,308,-460,0,присед
16:41:36.733000,308,-462,0,присед
16:41:36.734000,308,-467,0,присед
16:41:36.734000,308,-477,0,присед
16:41:36.735000,308,-479,0,присед
16:41:36.736000,308,-462,0,присед
16:41:36.736000,308,-437,0,присед
16:41:36.737000,308,-432,0,присед
16:41:36.738000,308,-425,0,присед
16:41:36.739000,308,-420,0,присед
16:41:36.740000,308,-425,0,присед
16:41:36.741000,308,-423,0,присед
16:41:36.742000,308,-410,0,присед
16:41:36.743000,308,-408,0,присед
16:41:36.744000,308,-405,0,присед
16:41:36.745000,308,-400,0,присед
16:41:36.746000,308,-427,0,присед
16:41:36.747000,308,-522,0,присед
16:41:36.748000,308,-522,0,присед
16:41:36.748000,308,-185,0,присед
16:41:36.749000,308,378,0,присед
16:41:36.750000,308,702,0,присед
16:41:36.751000,308,420,0,присед
16:41:36.752000,308,-150,0,присед
16:41:36.752000,308,-366,0,присед
16:41:36.753000,308,-304,0,присед
16:41:36.754000,308,-366,0,присед
16:41:36.755000,308,-440,0,присед
16:41:36.756000,308,-398,0,присед
16:41:36.757000,308,-380,0,присед
16:41:36.758000,308,-400,0,присед
16:41:36.758000,308,-385,0,присед
16:41:36.759000,308,-368,0,присед
16:41:36.760000,308,-363,0,присед
16:41:36.761000,308,-353,0,присед
16:41:36.761000,308,-338,0,присед
16:41:36.762000,308,-336,0,присед
16:41:36.763000,308,-338,0,присед
16:41:36.764000,308,-326,0,присед
16:41:36.764000,308,-314,0,присед
16:41:36.765000,308,-311,0,присед
16:41:36.766000,308,-301,0,присед
16:41:36.767000,308,-282,0,присед
16:41:36.768000,308,-262,0,присед
16:41:36.768000,308,-237,0,присед
16:41:36.769000,308,-197,0,присед
16:41:36.770000,308,-165,0,присед
16:41:36.770000,308,-150,0,присед
16:41:36.771000,308,-141,0,присед
16:41:36.773000,291,-141,0,присед
16:41:36.808000,286,-141,0,присед
16:41:36.907000,421,-141,0,присед
16:41:37.005000,341,-141,0,присед
16:41:37.099000,287,-141,0,присед
16:41:37.199000,268,-141,0,присед
16:41:37.205000,268,-128,0,присед
16:41:37.206000,268,-126,0,присед
16:41:37.207000,268,-133,0,присед
16:41:37.209000,268,-145,0,присед
16:41:37.210000,268,-180,0,присед
16:41:37.211000,268,-225,0,присед
16:41:37.212000,268,-264,0,присед
16:41:37.213000,268,-304,0,присед
16:41:37.214000,268,-341,0,присед
16:41:37.214000,268,-363,0,присед
16:41:37.215000,268,-373,0,присед
16:41:37.216000,268,-388,0,присед
16:41:37.217000,268,-405,0,присед
16:41:37.218000,268,-420,0,присед
16:41:37.218000,268,-435,0,присед
16:41:37.219000,268,-447,0,присед
16:41:37.220000,268,-457,0,присед
16:41:37.221000,268,-472,0,присед
16:41:37.222000,268,-484,0,присед
16:41:37.223000,268,-497,0,присед
16:41:37.224000,268,-509,0,присед
16:41:37.225000,268,-507,0,присед
16:41:37.226000,268,-489,0,присед
16:41:37.227000,268,-472,0,присед
16:41:37.228000,268,-460,0,присед
16:41:37.229000,268,-472,0,присед
16:41:37.229000,268,-504,0,присед
16:41:37.230000,268,-534,0,присед
16:41:37.231000,268,-554,0,присед
16:41:37.232000,268,-559,0,присед
16:41:37.232000,268,-561,0,присед
16:41:37.233000,268,-561,0,присед
16:41:37.234000,268,-554,0,присед
16:41:37.235000,268,-564,0,присед
16:41:37.236000,268,-665,0,присед
16:41:37.237000,268,-786,0,присед
16:41:37.238000,268,-653,0,присед
16:41:37.239000,268,-145,0,присед
16:41:37.240000,268,405,0,присед
16:41:37.240000,268,445,0,присед
16:41:37.241000,268,-113,0,присед
16:41:37.242000,268,-638,0,присед
16:41:37.243000,268,-707,0,присед
16:41:37.244000,268,-677,0,присед
16:41:37.245000,268,-769,0,присед
16:41:37.246000,268,-794,0,присед
16:41:37.247000,268,-757,0,присед
16:41:37.247000,268,-761,0,присед
16:41:37.248000,268,-774,0,присед
16:41:37.249000,268,-764,0,присед
16:41:37.250000,268,-786,0,присед
16:41:37.251000,268,-804,0,присед
16:41:37.251000,268,-752,0,присед
16:41:37.252000,268,-734,0,присед
16:41:37.253000,268,-808,0,присед
16:41:37.254000,268,-831,0,присед
16:41:37.255000,268,-769,0,присед
16:41:37.255000,268,-747,0,присед
16:41:37.256000,268,-749,0,присед
16:41:37.257000,268,-722,0,присед
16:41:37.258000,268,-702,0,присед
16:41:37.258000,268,-710,0,присед
16:41:37.259000,268,-714,0,присед
16:41:37.260000,268,-700,0,присед
16:41:37.260000,268,-677,0,присед
16:41:37.262000,268,-650,0,присед
16:41:37.262000,268,-625,0,присед
16:41:37.263000,268,-628,0,присед
16:41:37.264000,268,-628,0,присед
16:41:37.265000,268,-606,0,присед
16:41:37.266000,268,-603,0,присед
16:41:37.266000,268,-620,0,присед
16:41:37.267000,268,-630,0,присед
16:41:37.302000,271,-630,0,присед
16:41:37.401000,273,-630,0,присед
16:41:37.514000,356,-630,0,присед
16:41:37.592000,288,-630,0,присед
16:41:37.691000,296,-630,0,присед
16:41:37.810000,260,-630,0,присед
16:41:37.834000,260,-655,0,присед
16:41:37.836000,260,-672,0,присед
16:41:37.837000,260,-658,0,присед
16:41:37.838000,260,-635,0,присед
16:41:37.840000,260,-633,0,присед
16:41:37.841000,260,-648,0,присед
16:41:37.841000,260,-677,0,присед
16:41:37.842000,260,-667,0,присед
16:41:37.843000,260,-608,0,присед
16:41:37.844000,260,-593,0,присед
16:41:37.844000,260,-623,0,присед
16:41:37.845000,260,-593,0,присед
16:41:37.846000,260,-512,0,присед
16:41:37.847000,260,-499,0,присед
16:41:37.848000,260,-517,0,присед
16:41:37.848000,260,-460,0,присед
16:41:37.849000,260,-410,0,присед
16:41:37.850000,260,-420,0,присед
16:41:37.851000,260,-383,0,присед
16:41:37.852000,260,-324,0,присед
16:41:37.853000,260,-321,0,присед
16:41:37.854000,260,-316,0,присед
16:41:37.855000,260,-267,0,присед
16:41:37.856000,260,-205,0,присед
16:41:37.858000,260,-192,0,присед
16:41:37.859000,260,-235,0,присед
16:41:37.860000,260,-222,0,присед
16:41:37.861000,260,-175,0,присед
16:41:37.862000,260,-254,0,присед
16:41:37.863000,260,-336,0,присед
16:41:37.864000,260,-17,0,присед
16:41:37.865000,260,675,0,присед
16:41:37.866000,260,1076,0,присед
16:41:37.867000,260,761,0,присед
16:41:37.868000,260,210,0,присед
