timestamp,gsr,ecg,interval
1776458445704,336,-141,0
1776458445705,337,-141,0
1776458445705,337,-141,0
1776458445706,337,-141,0
1776458445706,337,-141,0
1776458445707,338,-141,0
1776458445707,339,-141,0
1776458445708,342,-141,0
1776458445708,349,-141,0
1776458445709,355,-141,0
1776458445855,355,-138,0
1776458445855,355,-143,0
1776458445856,355,-111,0
1776458445857,355,-86,0
1776458445858,355,-59,0
1776458445859,355,-42,0
1776458445860,355,-56,0
1776458445861,355,-66,0
1776458445861,355,-71,0
1776458445862,355,-111,0
1776458445863,355,-148,0
1776458445863,355,-166,0
1776458445871,355,-215,0
1776458445872,355,-280,0
1776458445873,355,-294,0
1776458445874,355,-297,0
1776458445874,355,-304,0
1776458445875,355,-297,0
1776458445876,355,-302,0
1776458445876,355,-324,0
1776458445877,355,-317,0
1776458445877,355,-307,0
1776458445878,355,-307,0
1776458445879,355,-294,0
1776458445879,355,-292,0
1776458445880,355,-292,0
1776458445880,355,-287,0
1776458445881,355,-277,0
1776458445882,355,-270,0
1776458445882,355,-267,0
1776458445883,355,-270,0
1776458445884,355,-265,0
1776458445884,355,-250,0
1776458445885,355,-240,0
1776458445886,355,-252,0
1776458445886,355,-260,0
1776458445887,355,-242,0
1776458445887,355,-242,0
1776458445888,355,-260,0
1776458445889,355,-260,0
1776458445889,355,-250,0
1776458445890,355,-245,0
1776458445891,355,-235,0
1776458445891,355,-230,0
1776458445892,355,-242,0
1776458445892,355,-225,0
1776458445893,355,-183,0
1776458445894,355,-195,0
1776458445894,355,-227,0
1776458445895,355,-230,0
1776458445895,355,-240,0
1776458445896,355,-237,0
1776458445897,355,-218,0
1776458445897,355,-223,0
1776458445898,355,-240,0
1776458445898,355,-250,0
1776458445899,355,-113,0
1776458445900,355,213,0
1776458445900,355,237,0
1776458445901,355,-267,0
1776458445902,355,-562,0
1776458445902,355,-354,0
1776458445903,355,-223,0
1776458445903,355,-262,0
1776458445904,355,-227,0
1776458445905,355,-190,0
1776458445905,355,-210,0
1776458445906,355,-218,0
1776458445907,355,-190,0
1776458445907,355,-170,0
1776458445908,355,-185,0
1776458445908,355,-188,0
1776458445909,355,-158,0
1776458446348,355,-146,0
1776458446349,355,-166,0
1776458446350,355,-163,0
1776458446351,355,-156,0
1776458446352,355,-166,0
1776458446353,355,-151,0
1776458446354,355,-136,0
1776458446355,355,-131,0
1776458446356,355,-52,0
1776458446356,355,19,0
1776458446357,355,-17,0
1776458446358,355,-37,0
1776458446359,355,12,0
1776458446360,355,-2,0
1776458446361,355,-94,0
1776458446362,355,-84,0
1776458446362,355,-29,0
1776458446363,355,-109,0
1776458446364,355,-237,0
1776458446365,355,-272,0
1776458446372,355,-282,0
1776458446373,355,-356,0
1776458446374,355,-346,0
1776458446376,355,-185,0
1776458446377,355,-138,0
1776458446378,355,-235,0
1776458446379,355,-257,0
1776458446380,355,-250,0
1776458446380,355,-324,0
1776458446381,355,-356,0
1776458446382,355,-324,0
1776458446383,355,-294,0
1776458446383,355,-170,0
1776458446384,355,-81,0
1776458446385,355,-178,0
1776458446386,355,-210,0
1776458446387,355,-91,0
1776458446388,355,-89,0
1776458446389,355,-188,0
1776458446390,355,-227,0
1776458446391,355,-198,0
1776458446391,355,-138,0
1776458446392,355,-138,0
1776458446393,355,-148,0
1776458446394,355,-91,0
1776458446394,355,-79,0
1776458446395,355,-173,0
1776458446396,355,-230,0
1776458446397,355,-138,0
1776458446397,355,-37,0
1776458446398,355,-94,0
1776458446399,355,-173,0
1776458446400,355,-173,0
1776458446400,355,-109,0
1776458446402,355,-54,0
1776458446403,355,-131,0
1776458446404,355,-136,0
1776458446405,355,-27,0
1776458446406,355,-106,0
1776458446407,355,-200,0
1776458446407,355,-133,0
1776458446408,355,-138,0
1776458446409,355,-141,0
1776458446410,355,-52,0
1776458446410,355,111,0
1776458446411,355,302,0
1776458446412,355,109,0
1776458446413,355,-376,0
1776458446414,355,-475,0
1776458446415,355,-257,0
1776458446416,355,-170,0
1776458446416,355,-146,0
1776458446417,355,-91,0
1776458446715,354,-91,0
1776458446716,353,-91,0
1776458446717,353,-91,0
1776458446719,353,-91,0
1776458446720,355,-91,0
1776458446721,357,-91,0
1776458446723,356,-91,0
1776458446724,354,-91,0
1776458446725,352,-91,0
1776458446726,349,-91,0
1776458446933,349,-106,0
1776458446935,349,-133,0
1776458446936,349,-99,0
1776458446937,349,-79,0
1776458446938,349,-116,0
1776458446939,349,-138,0
1776458446940,349,-116,0
1776458446941,349,-86,0
1776458446942,349,-89,0
1776458446942,349,-94,0
1776458446943,349,-79,0
1776458446944,349,-66,0
1776458446945,349,-56,0
1776458446945,349,-29,0
1776458446946,349,-4,0
1776458446947,349,-2,0
1776458446947,349,12,0
1776458446948,349,44,0
1776458446949,349,66,0
1776458446949,349,66,0
1776458446950,349,54,0
1776458446951,349,47,0
1776458446953,349,32,0
1776458446954,349,-9,0
1776458446955,349,-71,0
1776458446955,349,-126,0
1776458446956,349,-173,0
1776458446957,349,-223,0
1776458446958,349,-265,0
1776458446958,349,-272,0
1776458446959,349,-284,0
1776458446960,349,-314,0
1776458446960,349,-312,0
1776458446961,349,-287,0
1776458446962,349,-287,0
1776458446962,349,-272,0
1776458446963,349,-245,0
1776458446964,349,-280,0
1776458446965,349,-332,0
1776458446965,349,-319,0
1776458446966,349,-292,0
1776458446967,349,-284,0
1776458446968,349,-272,0
1776458446969,349,-257,0
1776458446970,349,-225,0
1776458446971,349,-198,0
1776458446972,349,-275,0
1776458446972,349,-344,0
1776458446973,349,-272,0
1776458446974,349,-227,0
1776458446974,349,-275,0
1776458446975,349,-292,0
1776458446976,349,-267,0
1776458446977,349,-260,0
1776458446977,349,-265,0
1776458446978,349,-265,0
1776458446979,349,-260,0
1776458446979,349,-252,0
1776458446980,349,-270,0
1776458446981,349,-294,0
1776458446981,349,-280,0
1776458446982,349,-235,0
1776458446983,349,-230,0
1776458446984,349,-227,0
1776458446985,349,-208,0
1776458446987,349,-227,0
1776458446988,349,-280,0
1776458446989,349,-307,0
1776458446990,349,-282,0
1776458446990,349,-247,0
1776458446991,349,-257,0
1776458446992,349,-292,0
1776458446993,349,-275,0
1776458447520,349,-69,0
1776458447521,349,267,0
1776458447522,349,178,0
1776458447523,349,-396,0
1776458447524,349,-631,0
1776458447525,349,-396,0
1776458447526,349,-262,0
1776458447527,349,-289,0
1776458447527,349,-292,0
1776458447528,349,-272,0
1776458447529,349,-250,0
1776458447530,349,-240,0
1776458447530,349,-235,0
1776458447531,349,-220,0
1776458447532,349,-210,0
1776458447533,349,-213,0
1776458447533,349,-208,0
1776458447534,349,-190,0
1776458447535,349,-188,0
1776458447536,349,-185,0
1776458447537,349,-161,0
1776458447538,349,-148,0
1776458447539,349,-141,0
1776458447539,349,-109,0
1776458447540,349,-81,0
1776458447541,349,-64,0
1776458447541,349,-32,0
1776458447542,349,-19,0
1776458447543,349,-27,0
1776458447544,349,-19,0
1776458447544,349,-14,0
1776458447545,349,-24,0
1776458447546,349,-52,0
1776458447546,349,-91,0
1776458447547,349,-146,0
1776458447548,349,-195,0
1776458447548,349,-235,0
1776458447549,349,-265,0
1776458447550,349,-282,0
1776458447550,349,-292,0
1776458447551,349,-287,0
1776458447552,349,-275,0
1776458447553,349,-292,0
1776458447554,349,-312,0
1776458447555,349,-282,0
1776458447556,349,-250,0
1776458447556,349,-255,0
1776458447557,349,-250,0
1776458447558,349,-223,0
1776458447559,349,-215,0
1776458447559,349,-215,0
1776458447560,349,-193,0
1776458447561,349,-175,0
1776458447562,349,-215,0
1776458447562,349,-250,0
1776458447563,349,-218,0
1776458447564,349,-195,0
1776458447565,349,-203,0
1776458447565,349,-178,0
1776458447566,349,-151,0
1776458447567,349,-208,0
1776458447567,349,-270,0
1776458447568,349,-225,0
1776458447569,349,-170,0
1776458447570,349,-183,0
1776458447571,349,-205,0
1776458447572,349,-200,0
1776458447572,349,-183,0
1776458447573,349,-175,0
1776458447574,349,-178,0
1776458447575,349,-168,0
1776458447575,349,-146,0
1776458447576,349,-136,0
1776458447733,347,-136,0
1776458447734,345,-136,0
1776458447735,343,-136,0
1776458447736,342,-136,0
1776458447737,343,-136,0
1776458447738,339,-136,0
1776458447739,337,-136,0
1776458447740,336,-136,0
1776458447740,335,-136,0
1776458448058,335,-148,0
1776458448059,335,-175,0
1776458448060,335,-200,0
1776458448060,335,-193,0
1776458448061,335,-190,0
1776458448062,335,-200,0
1776458448062,335,-175,0
1776458448063,335,-163,0
1776458448065,335,-225,0
1776458448066,335,-170,0
1776458448066,335,185,0
1776458448067,335,391,0
1776458448069,335,-91,0
1776458448069,335,-621,0
1776458448070,335,-503,0
1776458448070,335,-257,0
1776458448071,335,-272,0
1776458448072,335,-260,0
1776458448072,335,-190,0
1776458448073,335,-185,0
1776458448073,335,-190,0
1776458448074,335,-178,0
1776458448074,335,-153,0
1776458448075,335,-138,0
1776458448076,335,-190,0
1776458448076,335,-223,0
1776458448077,335,-153,0
1776458448077,335,-121,0
1776458448078,335,-151,0
1776458448079,335,-126,0
1776458448079,335,-76,0
1776458448080,335,-76,0
1776458448080,335,-74,0
1776458448081,335,-19,0
1776458448081,335,-2,0
1776458448082,335,-24,0
1776458448082,335,7,0
1776458448083,335,56,0
1776458448083,335,61,0
1776458448084,335,52,0
1776458448085,335,64,0
1776458448085,335,74,0
1776458448086,335,32,0
1776458448086,335,-47,0
1776458448087,335,-104,0
1776458448087,335,-141,0
1776458448088,335,-175,0
1776458448088,335,-198,0
1776458448088,335,-193,0
1776458448089,335,-190,0
1776458448089,335,-210,0
1776458448089,335,-218,0
1776458448090,335,-185,0
1776458448090,335,-133,0
1776458448090,335,-133,0
1776458448091,335,-198,0
1776458448091,335,-225,0
1776458448091,335,-158,0
1776458448092,335,-118,0
1776458448092,335,-168,0
1776458448092,335,-166,0
1776458448093,335,-91,0
1776458448094,335,-66,0
1776458448094,335,-96,0
1776458448095,335,-121,0
1776458448096,335,-101,0
1776458448099,335,-91,0
1776458448099,335,-118,0
1776458448100,335,-84,0
1776458448101,335,-61,0
1776458448102,335,-136,0
1776458448102,335,-141,0
1776458448103,335,-81,0
1776458448644,335,-111,0
1776458448645,335,-141,0
1776458448646,335,-104,0
1776458448647,335,-81,0
1776458448648,335,-99,0
1776458448648,335,-81,0
1776458448649,335,-52,0
1776458448651,335,-79,0
1776458448652,335,-91,0
1776458448653,335,-49,0
1776458448654,335,-76,0
1776458448654,335,-156,0
1776458448655,335,-163,0
1776458448656,335,-89,0
1776458448656,335,-49,0
1776458448657,335,-96,0
1776458448658,335,-89,0
1776458448658,335,116,0
1776458448659,335,354,0
1776458448660,335,143,0
1776458448660,335,-394,0
1776458448661,335,-535,0
1776458448662,335,-280,0
1776458448662,335,-143,0
1776458448663,335,-131,0
1776458448663,335,-69,0
1776458448664,335,-49,0
1776458448665,335,-96,0
1776458448666,335,-71,0
1776458448666,335,-2,0
1776458448667,335,0,0
1776458448667,335,-27,0
1776458448668,335,22,0
1776458448669,335,52,0
1776458448670,335,-4,0
1776458448671,335,29,0
1776458448671,335,86,0
1776458448672,335,29,0
1776458448672,335,49,0
1776458448673,335,153,0
1776458448674,335,158,0
1776458448674,335,138,0
1776458448675,335,200,0
1776458448676,335,230,0
1776458448677,335,215,0
1776458448678,335,272,0
1776458448678,335,299,0
1776458448679,335,220,0
1776458448680,335,170,0
1776458448680,335,210,0
1776458448681,335,230,0
1776458448682,335,133,0
1776458448682,335,-7,0
1776458448683,335,-56,0
1776458448684,335,-27,0
1776458448684,335,2,0
1776458448685,335,24,0
1776458448686,335,24,0
1776458448687,335,-49,0
1776458448687,335,-141,0
1776458448688,335,-81,0
1776458448689,335,14,0
1776458448689,335,-66,0
1776458448690,335,-131,0
1776458448690,335,-54,0
1776458448691,335,-14,0
1776458448692,335,-22,0
1776458448692,335,-2,0
1776458448693,335,34,0
1776458448694,335,47,0
1776458448694,335,-49,0
1776458448695,335,-128,0
1776458448696,335,7,0
1776458448744,334,7,0
1776458448745,333,7,0
1776458448745,332,7,0
1776458448746,332,7,0
1776458448747,332,7,0
1776458448748,331,7,0
1776458448748,331,7,0
1776458448749,330,7,0
1776458448750,330,7,0
1776458448751,329,7,0
1776458448751,329,7,0
1776458449228,329,66,0
1776458449230,329,-99,0
1776458449230,329,-109,0
1776458449231,329,-7,0
1776458449232,329,-47,0
1776458449232,329,-64,0
1776458449233,329,0,0
1776458449234,329,-52,0
1776458449234,329,-118,0
1776458449235,329,-56,0
1776458449235,329,-61,0
1776458449236,329,-151,0
1776458449236,329,-136,0
1776458449237,329,-71,0
1776458449237,329,-84,0
1776458449238,329,-86,0
1776458449239,329,-56,0
1776458449239,329,-96,0
1776458449240,329,-170,0
1776458449240,329,-128,0
1776458449241,329,-42,0
1776458449241,329,-69,0
1776458449242,329,-123,0
1776458449242,329,39,0
1776458449243,329,339,0
1776458449243,329,116,0
1776458449244,329,-480,0
1776458449244,329,-577,0
1776458449245,329,-341,0
1776458449245,329,-205,0
1776458449246,329,-76,0
1776458449246,329,-66,0
1776458449247,329,-151,0
1776458449247,329,-109,0
1776458449248,329,-66,0
1776458449248,329,-104,0
1776458449249,329,-61,0
1776458449250,329,19,0
1776458449250,329,0,0
1776458449251,329,-19,0
1776458449251,329,-47,0
1776458449252,329,-89,0
1776458449252,329,-14,0
1776458449253,329,61,0
1776458449253,329,47,0
1776458449254,329,4,0
1776458449254,329,-79,0
1776458449255,329,-37,0
1776458449256,329,151,0
1776458449256,329,183,0
1776458449257,329,101,0
1776458449257,329,143,0
1776458449258,329,151,0
1776458449258,329,19,0
1776458449259,329,61,0
1776458449259,329,230,0
1776458449260,329,113,0
1776458449260,329,-158,0
1776458449261,329,-66,0
1776458449261,329,106,0
1776458449262,329,-118,0
1776458449262,329,-312,0
1776458449263,329,-190,0
1776458449263,329,-109,0
1776458449264,329,-183,0
1776458449264,329,-123,0
1776458449265,329,-4,0
1776458449266,329,-121,0
1776458449266,329,-208,0
1776458449267,329,-111,0
1776458449267,329,-146,0
1776458449268,329,-190,0
1776458449268,329,-32,0
1776458449723,329,-7,0
1776458449723,329,-89,0
1776458449724,329,-27,0
1776458449725,329,-12,0
1776458449725,329,-49,0
1776458449726,329,-17,0
1776458449726,329,-59,0
1776458449727,329,-193,0
1776458449728,329,-195,0
1776458449728,329,-37,0
1776458449729,329,-29,0
1776458449730,329,-143,0
1776458449730,329,-66,0
1776458449731,329,14,0
1776458449731,329,-84,0
1776458449732,329,-138,0
1776458449732,329,-104,0
1776458449733,329,-106,0
1776458449733,329,-128,0
1776458449734,329,-143,0
1776458449735,329,-106,0
1776458449736,329,-64,0
1776458449736,329,-106,0
1776458449737,329,-141,0
1776458449738,329,-111,0
1776458449738,329,-123,0
1776458449739,329,-178,0
1776458449739,329,-161,0
1776458449740,329,-76,0
1776458449741,329,71,0
1776458449741,329,262,0
1776458449742,329,148,0
1776458449742,329,-332,0
1776458449743,329,-564,0
1776458449744,329,-356,0
1776458449744,329,-146,0
1776458449745,329,-141,0
1776458449746,329,-205,0
1776458449746,329,-170,0
1776458449747,329,-91,0
1776458449747,329,-89,0
1776458449748,329,-74,0
1776458449749,329,-32,0
1776458449749,329,-56,0
1776458449750,329,-79,0
1776458449750,329,-42,0
1776458449751,329,-39,0
1776458449752,329,-56,0
1776458449752,329,-34,0
1776458449753,329,-34,0
1776458449753,329,-42,0
1776458449754,329,-12,0
1776458449755,329,-14,0
1776458449755,329,-17,0
1776458449756,329,64,0
1776458449756,329,126,0
1776458449757,329,74,0
1776458449758,329,34,0
1776458449758,329,59,0
1776458449759,329,69,0
1776458449759,329,61,0
1776458449760,329,37,0
1776458449761,329,-9,0
1776458449761,329,-89,0
1776458449762,329,-195,0
1776458449762,329,-227,0
1776458449763,329,-208,0
1776458449764,329,-237,0
1776458449764,329,-250,0
1776458449765,329,-208,0
1776458449765,329,-242,0
1776458449766,329,-329,0
1776458449767,329,-314,0
1776458449767,328,-314,0
1776458449768,328,-314,0
1776458449769,327,-314,0
1776458449770,327,-314,0
1776458449771,327,-314,0
1776458449771,327,-314,0
1776458449772,326,-314,0
1776458449773,326,-314,0
1776458449773,325,-314,0
1776458449774,325,-314,0
1776458450309,325,-267,0
1776458450310,325,-287,0
1776458450311,325,-287,0
1776458450312,325,-267,0
1776458450313,325,-272,0
1776458450314,325,-280,0
1776458450314,325,-277,0
1776458450315,325,-265,0
1776458450316,325,-272,0
1776458450316,325,-304,0
1776458450317,325,-302,0
1776458450318,325,-260,0
1776458450319,325,-247,0
1776458450319,325,-265,0
1776458450320,325,-270,0
1776458450321,325,-280,0
1776458450321,325,-282,0
1776458450322,325,-280,0
1776458450322,325,-287,0
1776458450323,325,-255,0
1776458450324,325,-257,0
1776458450324,325,-346,0
1776458450325,325,-349,0
1776458450326,325,-284,0
1776458450326,325,-282,0
1776458450327,325,-275,0
1776458450327,325,-245,0
1776458450328,325,-255,0
1776458450329,325,-280,0
1776458450329,325,-255,0
1776458450330,325,-220,0
1776458450330,325,-284,0
1776458450331,325,-379,0
1776458450332,325,-356,0
1776458450332,325,-314,0
1776458450333,325,-287,0
1776458450333,325,-32,0
1776458450334,325,255,0
1776458450335,325,-12,0
1776458450336,325,-547,0
1776458450336,325,-602,0
1776458450337,325,-406,0
1776458450337,325,-396,0
1776458450338,325,-396,0
1776458450339,325,-337,0
1776458450340,325,-337,0
1776458450341,325,-361,0
1776458450342,325,-351,0
1776458450342,325,-329,0
1776458450343,325,-332,0
1776458450344,325,-339,0
1776458450344,325,-324,0
1776458450345,325,-319,0
1776458450346,325,-327,0
1776458450346,325,-322,0
1776458450347,325,-309,0
1776458450348,325,-304,0
1776458450349,325,-294,0
1776458450349,325,-282,0
1776458450350,325,-275,0
1776458450351,325,-252,0
1776458450351,325,-215,0
1776458450352,325,-193,0
1776458450353,325,-188,0
1776458450354,325,-168,0
1776458450354,325,-153,0
1776458450355,325,-178,0
1776458450356,325,-193,0
1776458450356,325,-203,0
1776458450357,325,-245,0
1776458450358,325,-307,0
1776458450358,325,-351,0
1776458450359,325,-374,0
1776458450781,325,-374,0
1776458450782,324,-374,0
1776458450783,334,-374,0
1776458450784,327,-374,0
1776458450785,325,-374,0
1776458450786,324,-374,0
1776458450787,323,-374,0
1776458450788,323,-374,0
1776458450789,322,-374,0
1776458450789,322,-374,0
1776458450790,322,-374,0
1776458450893,322,-403,0
1776458450894,322,-436,0
1776458450895,322,-441,0
1776458450896,322,-428,0
1776458450897,322,-416,0
1776458450898,322,-408,0
1776458450899,322,-406,0
1776458450900,322,-403,0
1776458450900,322,-406,0
1776458450901,322,-401,0
1776458450902,322,-386,0
1776458450903,322,-376,0
1776458450903,322,-371,0
1776458450904,322,-366,0
1776458450905,322,-364,0
1776458450906,322,-351,0
1776458450906,322,-344,0
1776458450907,322,-351,0
1776458450908,322,-344,0
1776458450909,322,-327,0
1776458450909,322,-332,0
1776458450910,322,-341,0
1776458450911,322,-334,0
1776458450912,322,-324,0
1776458450913,322,-332,0
1776458450913,322,-341,0
1776458450914,322,-339,0
1776458450915,322,-337,0
1776458450915,322,-334,0
1776458450916,322,-319,0
1776458450917,322,-309,0
1776458450917,322,-314,0
1776458450918,322,-309,0
1776458450919,322,-292,0
1776458450920,322,-280,0
1776458450920,322,-282,0
1776458450921,322,-289,0
1776458450922,322,-297,0
1776458450922,322,-312,0
1776458450923,322,-314,0
1776458450924,322,-297,0
1776458450925,322,-287,0
1776458450926,322,-322,0
1776458450927,322,-334,0
1776458450928,322,-148,0
1776458450929,322,200,0
1776458450930,322,227,0
1776458450930,322,-245,0
1776458450931,322,-557,0
1776458450932,322,-403,0
1776458450932,322,-292,0
1776458450933,322,-351,0
1776458450934,322,-334,0
1776458450935,322,-277,0
1776458450935,322,-282,0
1776458450936,322,-287,0
1776458450937,322,-272,0
1776458450937,322,-262,0
1776458450938,322,-252,0
1776458450939,322,-240,0
1776458450939,322,-235,0
1776458450940,322,-237,0
1776458450941,322,-227,0
1776458450941,322,-210,0
1776458450942,322,-208,0
1776458450943,322,-198,0
1776458450943,322,-178,0
1776458450944,322,-163,0
1776458450945,322,-146,0
1776458450945,322,-116,0
1776458450946,322,-86,0
1776458450947,322,-64,0
1776458450947,322,-44,0
1776458451433,322,-37,0
1776458451434,322,-44,0
1776458451435,322,-54,0
1776458451436,322,-71,0
1776458451437,322,-94,0
1776458451438,322,-138,0
1776458451439,322,-195,0
1776458451439,322,-237,0
1776458451440,322,-262,0
1776458451441,322,-280,0
1776458451442,322,-287,0
1776458451442,322,-297,0
1776458451443,322,-307,0
1776458451444,322,-299,0
1776458451445,322,-289,0
1776458451445,322,-280,0
1776458451446,322,-272,0
1776458451447,322,-270,0
1776458451448,322,-262,0
1776458451449,322,-252,0
1776458451450,322,-247,0
1776458451451,322,-247,0
1776458451452,322,-237,0
1776458451453,322,-235,0
1776458451454,322,-237,0
1776458451455,322,-230,0
1776458451456,322,-225,0
1776458451456,322,-225,0
1776458451457,322,-223,0
1776458451458,322,-218,0
1776458451459,322,-218,0
1776458451460,322,-213,0
1776458451462,322,-205,0
1776458451463,322,-210,0
1776458451463,322,-213,0
1776458451465,322,-215,0
1776458451466,322,-230,0
1776458451466,322,-227,0
1776458451468,322,-232,0
1776458451469,322,-250,0
1776458451469,322,-235,0
1776458451470,322,-230,0
1776458451471,322,-242,0
1776458451472,322,-225,0
1776458451472,322,-220,0
1776458451473,322,-232,0
1776458451474,322,-213,0
1776458451475,322,-185,0
1776458451475,322,-175,0
1776458451476,322,-180,0
1776458451478,322,-198,0
1776458451478,322,-218,0
1776458451479,322,-237,0
1776458451480,322,-230,0
1776458451481,322,-210,0
1776458451481,322,-235,0
1776458451482,322,-275,0
1776458451482,322,-245,0
1776458451483,322,-14,0
1776458451484,322,297,0
1776458451485,322,173,0
1776458451485,322,-319,0
1776458451486,322,-468,0
1776458451486,322,-292,0
1776458451487,322,-250,0
1776458451488,322,-277,0
1776458451488,322,-237,0
1776458451489,322,-218,0
1776458451490,322,-225,0
1776458451490,322,-220,0
1776458451491,322,-208,0
1776458451492,322,-198,0
1776458451492,322,-203,0
1776458451793,321,-203,0
1776458451794,321,-203,0
1776458451795,321,-203,0
1776458451796,320,-203,0
1776458451797,320,-203,0
1776458451798,320,-203,0
1776458451799,319,-203,0
1776458451799,319,-203,0
1776458451800,318,-203,0
1776458451801,318,-203,0
1776458452019,318,-208,0
1776458452020,318,-180,0
1776458452020,318,-138,0
1776458452021,318,-141,0
1776458452022,318,-188,0
1776458452023,318,-205,0
1776458452024,318,-166,0
1776458452025,318,-141,0
1776458452025,318,-148,0
1776458452026,318,-136,0
1776458452026,318,-94,0
1776458452027,318,-94,0
1776458452028,318,-96,0
1776458452029,318,-34,0
1776458452029,318,-12,0
1776458452030,318,-69,0
1776458452030,318,-91,0
1776458452031,318,-74,0
1776458452032,318,-106,0
1776458452032,318,-151,0
1776458452033,318,-173,0
1776458452034,318,-227,0
1776458452034,318,-277,0
1776458452035,318,-277,0
1776458452036,318,-280,0
1776458452036,318,-284,0
1776458452037,318,-265,0
1776458452038,318,-252,0
1776458452038,318,-247,0
1776458452039,318,-247,0
1776458452039,318,-245,0
1776458452040,318,-250,0
1776458452041,318,-275,0
1776458452041,318,-262,0
1776458452042,318,-220,0
1776458452042,318,-245,0
1776458452043,318,-265,0
1776458452044,318,-213,0
1776458452044,318,-188,0
1776458452045,318,-185,0
1776458452046,318,-185,0
1776458452046,318,-215,0
1776458452047,318,-218,0
1776458452047,318,-190,0
1776458452048,318,-203,0
1776458452049,318,-220,0
1776458452049,318,-203,0
1776458452050,318,-148,0
1776458452050,318,-166,0
1776458452051,318,-282,0
1776458452052,318,-242,0
1776458452052,318,-94,0
1776458452053,318,-136,0
1776458452053,318,-203,0
1776458452054,318,-121,0
1776458452054,318,-116,0
1776458452055,318,-185,0
1776458452056,318,-148,0
1776458452056,318,-136,0
1776458452057,318,-193,0
1776458452057,318,-133,0
1776458452058,318,-99,0
1776458452058,318,-166,0
1776458452059,318,-151,0
1776458452059,318,-91,0
1776458452060,318,-91,0
1776458452060,318,-99,0
1776458452061,318,-99,0
1776458452061,318,-104,0
1776458452062,318,-116,0
1776458452062,318,-121,0
1776458452063,318,-66,0
1776458452063,318,-54,0
1776458452559,318,-111,0
1776458452560,318,-76,0
1776458452560,318,-17,0
1776458452561,318,-32,0
1776458452562,318,-56,0
1776458452563,318,-52,0
1776458452564,318,-47,0
1776458452565,318,-14,0
1776458452565,318,12,0
1776458452566,318,-56,0
1776458452567,318,-123,0
1776458452567,318,42,0
1776458452568,318,374,0
1776458452569,318,364,0
1776458452570,318,-109,0
1776458452570,318,-359,0
1776458452571,318,-208,0
1776458452571,318,-161,0
1776458452572,318,-198,0
1776458452573,318,-104,0
1776458452573,318,4,0
1776458452574,318,-32,0
1776458452574,318,-121,0
1776458452575,318,-86,0
1776458452576,318,-47,0
1776458452576,318,-61,0
1776458452577,318,-24,0
1776458452577,318,-61,0
1776458452578,318,-131,0
1776458452579,318,-84,0
1776458452579,318,-79,0
1776458452580,318,-118,0
1776458452580,318,-54,0
1776458452581,318,4,0
1776458452582,318,-27,0
1776458452582,318,-32,0
1776458452583,318,19,0
1776458452583,318,12,0
1776458452584,318,-24,0
1776458452585,318,-2,0
1776458452585,318,24,0
1776458452586,318,2,0
1776458452587,318,-39,0
1776458452587,318,-44,0
1776458452588,318,-59,0
1776458452588,318,-89,0
1776458452589,318,-39,0
1776458452590,318,-29,0
1776458452590,318,-156,0
1776458452591,318,-215,0
1776458452591,318,-153,0
1776458452592,318,-163,0
1776458452593,318,-225,0
1776458452593,318,-195,0
1776458452594,318,-156,0
1776458452594,318,-200,0
1776458452595,318,-220,0
1776458452596,318,-133,0
1776458452596,318,-113,0
1776458452597,318,-220,0
1776458452597,318,-218,0
1776458452598,318,-131,0
1776458452599,318,-178,0
1776458452599,318,-203,0
1776458452600,318,-136,0
1776458452601,318,-118,0
1776458452601,318,-96,0
1776458452602,318,-89,0
1776458452602,318,-141,0
1776458452603,318,-175,0
1776458452604,318,-153,0
1776458452604,318,-99,0
1776458452605,318,-76,0
1776458452813,318,-76,0
1776458452814,318,-76,0
1776458452814,318,-76,0
1776458452815,318,-76,0
1776458452816,319,-76,0
1776458452817,318,-76,0
1776458452818,318,-76,0
1776458452819,317,-76,0
1776458452820,317,-76,0
1776458452820,317,-76,0
1776458453098,317,-104,0
1776458453099,317,-168,0
1776458453099,317,-208,0
1776458453100,317,-203,0
1776458453101,317,-74,0
1776458453101,317,44,0
1776458453101,317,-84,0
1776458453102,317,-185,0
1776458453102,317,-91,0
1776458453103,317,-54,0
1776458453103,317,-123,0
1776458453104,317,-133,0
1776458453104,317,-27,0
1776458453105,317,0,0
1776458453105,317,-96,0
1776458453106,317,-69,0
1776458453106,317,-39,0
1776458453107,317,-109,0
1776458453107,317,-56,0
1776458453108,317,2,0
1776458453108,317,-47,0
1776458453109,317,-59,0
1776458453109,317,-89,0
1776458453110,317,-138,0
1776458453110,317,-22,0
1776458453111,317,81,0
1776458453112,317,0,0
1776458453112,317,-54,0
1776458453113,317,-71,0
1776458453113,317,-168,0
1776458453114,317,-158,0
1776458453115,317,-42,0
1776458453115,317,-59,0
1776458453116,317,-76,0
1776458453116,317,19,0
1776458453117,317,148,0
1776458453118,317,260,0
1776458453119,317,69,0
1776458453120,317,-364,0
1776458453121,317,-455,0
1776458453121,317,-284,0
1776458453122,317,-215,0
1776458453123,317,-118,0
1776458453123,317,-37,0
1776458453124,317,-89,0
1776458453124,317,-86,0
1776458453125,317,-47,0
1776458453126,317,-69,0
1776458453126,317,-54,0
1776458453127,317,-4,0
1776458453127,317,-22,0
1776458453128,317,-71,0
1776458453129,317,-69,0
1776458453129,317,0,0
1776458453130,317,29,0
1776458453130,317,-34,0
1776458453131,317,-49,0
1776458453132,317,-14,0
1776458453132,317,-27,0
1776458453133,317,0,0
1776458453134,317,34,0
1776458453135,317,27,0
1776458453135,317,56,0
1776458453136,317,54,0
1776458453137,317,37,0
1776458453137,317,61,0
1776458453138,317,66,0
1776458453139,317,24,0
1776458453139,317,-22,0
1776458453140,317,-29,0
1776458453140,317,-49,0
1776458453141,317,-111,0
1776458453142,317,-148,0
1776458453639,317,-180,0
1776458453639,317,-242,0
1776458453640,317,-245,0
1776458453641,317,-173,0
1776458453642,317,-166,0
1776458453643,317,-225,0
1776458453644,317,-218,0
1776458453644,317,-161,0
1776458453645,317,-158,0
1776458453646,317,-203,0
1776458453646,317,-218,0
1776458453647,317,-195,0
1776458453648,317,-183,0
1776458453648,317,-178,0
1776458453649,317,-163,0
1776458453649,317,-151,0
1776458453650,317,-153,0
1776458453651,317,-161,0
1776458453652,317,-156,0
1776458453652,317,-188,0
1776458453653,317,-218,0
1776458453654,317,-151,0
1776458453654,317,-123,0
1776458453655,317,-210,0
1776458453655,317,-225,0
1776458453656,317,-156,0
1776458453657,317,-183,0
1776458453657,317,-213,0
1776458453658,317,-146,0
1776458453658,317,-141,0
1776458453659,317,-200,0
1776458453660,317,-215,0
1776458453660,317,-188,0
1776458453661,317,-163,0
1776458453662,317,-178,0
1776458453662,317,-195,0
1776458453663,317,-183,0
1776458453663,317,-190,0
1776458453664,317,-200,0
1776458453665,317,-183,0
1776458453665,317,-190,0
1776458453666,317,-195,0
1776458453667,317,-178,0
1776458453667,317,-185,0
1776458453668,317,-185,0
1776458453669,317,-170,0
1776458453669,317,-190,0
1776458453670,317,-225,0
1776458453670,317,-230,0
1776458453671,317,-218,0
1776458453672,317,-220,0
1776458453672,317,-247,0
1776458453673,317,-267,0
1776458453673,317,-190,0
1776458453674,317,64,0
1776458453675,317,218,0
1776458453675,317,-123,0
1776458453676,317,-564,0
1776458453677,317,-540,0
1776458453677,317,-356,0
1776458453678,317,-329,0
1776458453679,317,-304,0
1776458453680,317,-270,0
1776458453680,317,-292,0
1776458453681,317,-302,0
1776458453681,317,-280,0
1776458453682,317,-277,0
1776458453683,317,-292,0
1776458453683,317,-294,0
1776458453684,317,-292,0
1776458453685,317,-289,0
1776458453685,317,-284,0
1776458453686,317,-272,0
1776458453830,317,-272,0
1776458453831,316,-272,0
1776458453832,316,-272,0
1776458453833,315,-272,0
1776458453834,315,-272,0
1776458453835,315,-272,0
1776458453836,314,-272,0
1776458453836,314,-272,0
1776458453837,314,-272,0
1776458453838,313,-272,0
1776458454269,313,-262,0
1776458454269,313,-260,0
1776458454270,313,-265,0
1776458454270,313,-265,0
1776458454271,313,-245,0
1776458454271,313,-213,0
1776458454272,313,-188,0
1776458454272,313,-163,0
1776458454272,313,-153,0
1776458454273,313,-153,0
1776458454274,313,-146,0
1776458454274,313,-148,0
1776458454274,313,-170,0
1776458454275,313,-193,0
1776458454275,313,-220,0
1776458454276,313,-275,0
1776458454276,313,-329,0
1776458454277,313,-361,0
1776458454277,313,-386,0
1776458454278,313,-401,0
1776458454278,313,-416,0
1776458454279,313,-428,0
1776458454280,313,-413,0
1776458454280,313,-403,0
1776458454281,313,-411,0
1776458454282,313,-403,0
1776458454283,313,-379,0
1776458454283,313,-376,0
1776458454284,313,-384,0
1776458454285,313,-366,0
1776458454286,313,-349,0
1776458454287,313,-351,0
1776458454287,313,-346,0
1776458454288,313,-332,0
1776458454288,313,-329,0
1776458454289,313,-327,0
1776458454290,313,-307,0
1776458454290,313,-304,0
1776458454291,313,-312,0
1776458454292,313,-314,0
1776458454292,313,-309,0
1776458454293,313,-307,0
1776458454293,313,-304,0
1776458454294,313,-302,0
1776458454295,313,-299,0
1776458454295,313,-297,0
1776458454296,313,-289,0
1776458454296,313,-282,0
1776458454297,313,-282,0
1776458454298,313,-282,0
1776458454298,313,-287,0
1776458454299,313,-292,0
1776458454299,313,-280,0
1776458454300,313,-265,0
1776458454301,313,-272,0
1776458454301,313,-272,0
1776458454302,313,-260,0
1776458454303,313,-242,0
1776458454303,313,-225,0
1776458454304,313,-213,0
1776458454304,313,-220,0
1776458454305,313,-235,0
1776458454306,313,-240,0
1776458454306,313,-235,0
1776458454307,313,-232,0
1776458454307,313,-235,0
1776458454308,313,-247,0
1776458454309,313,-260,0
1776458454309,313,-138,0
1776458454310,313,183,0
1776458454310,313,250,0
1776458454311,313,-220,0
1776458454312,313,-562,0
1776458454807,313,-416,0
1776458454808,313,-277,0
1776458454809,313,-297,0
1776458454809,313,-267,0
1776458454810,313,-230,0
1776458454810,313,-232,0
1776458454810,313,-225,0
1776458454811,313,-213,0
1776458454811,313,-218,0
1776458454812,313,-218,0
1776458454812,313,-200,0
1776458454813,313,-198,0
1776458454815,313,-210,0
1776458454815,313,-205,0
1776458454816,313,-185,0
1776458454817,313,-175,0
1776458454817,313,-168,0
1776458454818,313,-151,0
1776458454819,313,-133,0
1776458454819,313,-111,0
1776458454820,313,-89,0
1776458454821,313,-69,0
1776458454822,313,-47,0
1776458454822,313,-29,0
1776458454823,313,-24,0
1776458454824,313,-22,0
1776458454824,313,-29,0
1776458454825,313,-56,0
1776458454825,313,-86,0
1776458454826,313,-116,0
1776458454827,313,-151,0
1776458454827,313,-173,0
1776458454828,313,-218,0
1776458454828,313,-324,0
1776458454829,313,-374,0
1776458454830,313,-312,0
1776458454830,313,-307,0
1776458454831,313,-354,0
1776458454832,313,-332,0
1776458454832,313,-302,0
1776458454833,313,-319,0
1776458454834,313,-307,0
1776458454835,313,-284,0
1776458454835,313,-289,0
1776458454836,313,-272,0
1776458454836,313,-252,0
1776458454837,313,-255,0
1776458454838,313,-242,0
1776458454838,313,-232,0
1776458454839,313,-262,0
1776458454839,313,-270,0
1776458454840,313,-227,0
1776458454841,313,-227,0
1776458454841,313,-250,0
1776458454842,313,-213,0
1776458454842,313,-203,0
1776458454843,313,-252,0
1776458454843,313,-289,0
1776458454844,313,-280,0
1776458454845,313,-257,0
1776458454845,313,-270,0
1776458454846,313,-275,0
1776458454847,313,-245,0
1776458454847,313,-232,0
1776458454848,313,-242,0
1776458454849,313,-257,0
1776458454850,313,-257,0
1776458454850,313,-240,0
1776458454851,313,-230,0
1776458454851,313,-223,0
1776458454852,313,-215,0
1776458454853,313,-245,0
1776458454853,313,-287,0
1776458454854,313,-287,0
1776458454855,313,-287,0
1776458454856,312,-287,0
1776458454857,312,-287,0
1776458454859,312,-287,0
1776458454859,312,-287,0
1776458454860,312,-287,0
1776458454861,312,-287,0
1776458454861,309,-287,0
1776458454862,310,-287,0
1776458455348,310,-240,0
1776458455349,310,-168,0
1776458455350,310,-175,0
1776458455350,310,-213,0
1776458455351,310,-223,0
1776458455351,310,-213,0
1776458455353,310,-195,0
1776458455353,310,-195,0
1776458455354,310,-237,0
1776458455354,310,-262,0
1776458455354,310,-218,0
1776458455355,310,-42,0
1776458455355,310,250,0
1776458455356,310,215,0
1776458455357,310,-230,0
1776458455357,310,-451,0
1776458455358,310,-292,0
1776458455358,310,-175,0
1776458455359,310,-166,0
1776458455359,310,-163,0
1776458455360,310,-163,0
1776458455361,310,-109,0
1776458455361,310,-84,0
1776458455362,310,-148,0
1776458455363,310,-121,0
1776458455363,310,-32,0
1776458455364,310,-54,0
1776458455364,310,-99,0
1776458455365,310,-39,0
1776458455366,310,14,0
1776458455367,310,2,0
1776458455368,310,-19,0
1776458455369,310,-32,0
1776458455369,310,-2,0
1776458455370,310,37,0
1776458455370,310,59,0
1776458455371,310,96,0
1776458455371,310,131,0
1776458455372,310,138,0
1776458455372,310,121,0
1776458455373,310,116,0
1776458455374,310,116,0
1776458455375,310,118,0
1776458455375,310,133,0
1776458455376,310,113,0
1776458455376,310,56,0
1776458455377,310,-27,0
1776458455377,310,-52,0
1776458455378,310,7,0
1776458455378,310,-19,0
1776458455379,310,-131,0
1776458455379,310,-183,0
1776458455380,310,-136,0
1776458455381,310,-66,0
1776458455382,310,-89,0
1776458455382,310,-131,0
1776458455383,310,-89,0
1776458455384,310,-52,0
1776458455384,310,-66,0
1776458455385,310,-69,0
1776458455385,310,-79,0
1776458455386,310,-104,0
1776458455387,310,-49,0
1776458455387,310,-4,0
1776458455388,310,-121,0
1776458455389,310,-195,0
1776458455389,310,-133,0
1776458455390,310,-111,0
1776458455390,310,-66,0
1776458455391,310,-4,0
1776458455391,310,-74,0
1776458455392,310,-121,0
1776458455393,310,-54,0
1776458455866,312,-54,0
1776458455866,311,-54,0
1776458455867,312,-54,0
1776458455868,312,-54,0
1776458455869,312,-54,0
1776458455870,313,-54,0
1776458455871,312,-54,0
1776458455872,312,-54,0
1776458455873,313,-54,0
1776458455873,312,-54,0
1776458455933,312,-66,0
1776458455934,312,-106,0
1776458455935,312,-42,0
1776458455936,312,-19,0
1776458455937,312,-59,0
1776458455938,312,-37,0
1776458455938,312,-84,0
1776458455939,312,-178,0
1776458455940,312,-113,0
1776458455940,312,-56,0
1776458455941,312,-74,0
1776458455941,312,-44,0
1776458455942,312,-54,0
1776458455943,312,-76,0
1776458455944,312,-61,0
1776458455944,312,-66,0
1776458455945,312,-66,0
1776458455945,312,-34,0
1776458455946,312,-19,0
1776458455947,312,-56,0
1776458455947,312,-7,0
1776458455948,312,280,0
1776458455948,312,250,0
1776458455949,312,-346,0
1776458455950,312,-604,0
1776458455951,312,-334,0
1776458455952,312,-218,0
1776458455952,312,-220,0
1776458455953,312,-109,0
1776458455953,312,-24,0
1776458455954,312,-17,0
1776458455955,312,-32,0
1776458455955,312,-17,0
1776458455956,312,-4,0
1776458455957,312,-64,0
1776458455957,312,-39,0
1776458455958,312,86,0
1776458455959,312,4,0
1776458455959,312,-79,0
1776458455960,312,84,0
1776458455960,312,113,0
1776458455961,312,-64,0
1776458455962,312,-27,0
1776458455962,312,168,0
1776458455963,312,146,0
1776458455963,312,42,0
1776458455964,312,44,0
1776458455965,312,113,0
1776458455965,312,188,0
1776458455966,312,156,0
1776458455966,312,106,0
1776458455967,312,131,0
1776458455968,312,101,0
1776458455969,312,74,0
1776458455969,312,89,0
1776458455970,312,84,0
1776458455970,312,-19,0
1776458455971,312,-185,0
1776458455972,312,-151,0
1776458455972,312,-56,0
1776458455973,312,-170,0
1776458455973,312,-272,0
1776458455974,312,-220,0
1776458455975,312,-111,0
1776458455975,312,4,0
1776458455976,312,-34,0
1776458455977,312,-200,0
1776458455977,312,-151,0
1776458455978,312,42,0
1776458455978,312,22,0
1776458455979,312,-173,0
1776458455979,312,-200,0
1776458455980,312,-42,0
1776458456474,312,-44,0
1776458456475,312,-109,0
1776458456475,312,32,0
1776458456476,312,22,0
1776458456476,312,-245,0
1776458456477,312,-203,0
1776458456477,312,34,0
1776458456478,312,-44,0
1776458456478,312,-158,0
1776458456480,312,-47,0
1776458456481,312,-34,0
1776458456482,312,-200,0
1776458456482,312,-198,0
1776458456483,312,-56,0
1776458456484,312,-49,0
1776458456485,312,-99,0
1776458456485,312,-91,0
1776458456486,312,-84,0
1776458456486,312,-111,0
1776458456487,312,-118,0
1776458456487,312,-69,0
1776458456488,312,-104,0
1776458456488,312,-208,0
1776458456489,312,-156,0
1776458456489,312,-89,0
1776458456490,312,-131,0
1776458456490,312,-113,0
1776458456491,312,91,0
1776458456491,312,359,0
1776458456492,312,168,0
1776458456492,312,-446,0
1776458456493,312,-607,0
1776458456493,312,-364,0
1776458456494,312,-312,0
1776458456494,312,-230,0
1776458456495,312,-76,0
1776458456495,312,-66,0
1776458456495,312,-81,0
1776458456496,312,-66,0
1776458456496,312,-69,0
1776458456497,312,-74,0
1776458456497,312,-52,0
1776458456498,312,2,0
1776458456499,312,-22,0
1776458456499,312,-74,0
1776458456500,312,-27,0
1776458456501,312,-12,0
1776458456501,312,-104,0
1776458456502,312,-81,0
1776458456502,312,39,0
1776458456503,312,54,0
1776458456503,312,29,0
1776458456504,312,76,0
1776458456505,312,94,0
1776458456505,312,61,0
1776458456506,312,89,0
1776458456506,312,143,0
1776458456507,312,113,0
1776458456507,312,37,0
1776458456508,312,52,0
1776458456509,312,74,0
1776458456509,312,-49,0
1776458456510,312,-141,0
1776458456510,312,-131,0
1776458456511,312,-161,0
1776458456511,312,-163,0
1776458456512,312,-173,0
1776458456512,312,-255,0
1776458456513,312,-237,0
1776458456513,312,-156,0
1776458456514,312,-178,0
1776458456515,312,-237,0
1776458456515,312,-200,0
1776458456882,313,-200,0
1776458456883,314,-200,0
1776458456884,313,-200,0
1776458456884,314,-200,0
1776458456885,365,-200,0
1776458456886,313,-200,0
1776458456887,313,-200,0
1776458456888,314,-200,0
1776458456890,313,-200,0
1776458456890,313,-200,0
1776458456890,313,-200,0
1776458457013,313,-163,0
1776458457014,313,-175,0
1776458457015,313,-161,0
1776458457016,313,-158,0
1776458457017,313,-170,0
1776458457018,313,-138,0
1776458457019,313,-113,0
1776458457019,313,-131,0
1776458457020,313,-158,0
1776458457020,313,-151,0
1776458457021,313,-128,0
1776458457022,313,-123,0
1776458457022,313,-121,0
1776458457023,313,-99,0
1776458457023,313,-141,0
1776458457024,313,-218,0
1776458457025,313,-183,0
1776458457026,313,-126,0
1776458457026,313,-163,0
1776458457027,313,-180,0
1776458457028,313,-111,0
1776458457029,313,-91,0
1776458457030,313,-178,0
1776458457030,313,-213,0
1776458457031,313,-153,0
1776458457031,313,-121,0
1776458457032,313,-153,0
1776458457033,313,-220,0
1776458457033,313,-235,0
1776458457034,313,-166,0
1776458457035,313,-158,0
1776458457035,313,-175,0
1776458457036,313,84,0
1776458457037,313,339,0
1776458457037,313,-44,0
1776458457038,313,-592,0
1776458457039,313,-542,0
1776458457039,313,-307,0
1776458457040,313,-282,0
1776458457040,313,-252,0
1776458457041,313,-200,0
1776458457042,313,-203,0
1776458457042,313,-203,0
1776458457043,313,-200,0
1776458457043,313,-190,0
1776458457044,313,-190,0
1776458457045,313,-213,0
1776458457045,313,-210,0
1776458457046,313,-183,0
1776458457046,313,-178,0
1776458457047,313,-193,0
1776458457047,313,-203,0
1776458457048,313,-188,0
1776458457049,313,-168,0
1776458457049,313,-163,0
1776458457050,313,-158,0
1776458457051,313,-138,0
1776458457051,313,-118,0
1776458457052,313,-91,0
1776458457053,313,-69,0
1776458457053,313,-76,0
1776458457054,313,-86,0
1776458457054,313,-79,0
1776458457055,313,-99,0
1776458457056,313,-151,0
1776458457057,313,-200,0
1776458457057,313,-255,0
1776458457058,313,-322,0
1776458457059,313,-366,0
1776458457059,313,-384,0
1776458457060,313,-403,0
1776458457061,313,-421,0
1776458457061,313,-411,0
1776458457688,313,-394,0
1776458457689,313,-406,0
1776458457689,313,-418,0
1776458457690,313,-398,0
1776458457690,313,-386,0
1776458457691,313,-389,0
1776458457691,313,-384,0
1776458457692,313,-364,0
1776458457692,313,-354,0
1776458457693,313,-364,0
1776458457693,313,-364,0
1776458457694,313,-344,0
1776458457694,313,-327,0
1776458457695,313,-322,0
1776458457695,313,-324,0
1776458457695,313,-334,0
1776458457696,313,-332,0
1776458457696,313,-329,0
1776458457697,313,-339,0
1776458457697,313,-341,0
1776458457698,313,-337,0
1776458457699,313,-337,0
1776458457699,313,-327,0
1776458457700,313,-322,0
1776458457701,313,-322,0
1776458457702,313,-312,0
1776458457702,313,-299,0
1776458457703,313,-304,0
1776458457704,313,-319,0
1776458457704,313,-327,0
1776458457705,313,-327,0
1776458457705,313,-322,0
1776458457706,313,-314,0
1776458457707,313,-341,0
1776458457707,313,-386,0
1776458457708,313,-317,0
1776458457708,313,2,0
1776458457709,313,287,0
1776458457710,313,29,0
1776458457710,313,-478,0
1776458457711,313,-540,0
1776458457711,313,-351,0
1776458457712,313,-349,0
1776458457712,313,-381,0
1776458457713,313,-337,0
1776458457714,313,-324,0
1776458457714,313,-327,0
1776458457715,313,-307,0
1776458457716,313,-297,0
1776458457716,313,-294,0
1776458457717,313,-292,0
1776458457718,313,-289,0
1776458457718,313,-287,0
1776458457719,313,-275,0
1776458457720,313,-257,0
1776458457720,313,-245,0
1776458457721,313,-237,0
1776458457721,313,-223,0
1776458457722,313,-208,0
1776458457723,313,-190,0
1776458457723,313,-166,0
1776458457724,313,-136,0
1776458457724,313,-109,0
1776458457725,313,-94,0
1776458457726,313,-76,0
1776458457726,313,-61,0
1776458457727,313,-69,0
1776458457727,313,-96,0
1776458457728,313,-121,0
1776458457729,313,-153,0
1776458457729,313,-203,0
1776458457730,313,-255,0
1776458457731,313,-282,0
1776458457901,312,-282,0
1776458457902,312,-282,0
1776458457903,312,-282,0
1776458457903,311,-282,0
1776458457904,311,-282,0
1776458457905,311,-282,0
1776458457906,310,-282,0
1776458457907,310,-282,0
1776458457907,309,-282,0
1776458457908,309,-282,0
1776458458228,309,-297,0
1776458458229,309,-317,0
1776458458229,309,-334,0
1776458458230,309,-329,0
1776458458231,309,-312,0
1776458458231,309,-297,0
1776458458231,309,-312,0
1776458458232,309,-341,0
1776458458232,309,-324,0
1776458458233,309,-287,0
1776458458234,309,-292,0
1776458458236,309,-302,0
1776458458236,309,-289,0
1776458458237,309,-280,0
1776458458238,309,-280,0
1776458458238,309,-280,0
1776458458239,309,-275,0
1776458458240,309,-280,0
1776458458240,309,-287,0
1776458458241,309,-292,0
1776458458242,309,-289,0
1776458458243,309,-282,0
1776458458243,309,-299,0
1776458458244,309,-314,0
1776458458245,309,-294,0
1776458458245,309,-272,0
1776458458246,309,-272,0
1776458458246,309,-277,0
1776458458247,309,-277,0
1776458458248,309,-260,0
1776458458248,309,-235,0
1776458458249,309,-232,0
1776458458249,309,-230,0
1776458458250,309,-245,0
1776458458251,309,-280,0
1776458458252,309,-280,0
1776458458253,309,-287,0
1776458458253,309,-312,0
1776458458254,309,-299,0
1776458458254,309,-255,0
1776458458255,309,-59,0
1776458458255,309,270,0
1776458458256,309,193,0
1776458458257,309,-351,0
1776458458257,309,-604,0
1776458458258,309,-428,0
1776458458258,309,-312,0
1776458458259,309,-334,0
1776458458260,309,-354,0
1776458458260,309,-304,0
1776458458261,309,-250,0
1776458458262,309,-267,0
1776458458262,309,-277,0
1776458458263,309,-247,0
1776458458263,309,-255,0
1776458458264,309,-262,0
1776458458265,309,-223,0
1776458458265,309,-230,0
1776458458266,309,-282,0
1776458458267,309,-250,0
1776458458268,309,-173,0
1776458458268,309,-178,0
1776458458269,309,-213,0
1776458458270,309,-175,0
1776458458270,309,-126,0
1776458458271,309,-121,0
1776458458271,309,-94,0
1776458458272,309,-24,0
1776458458273,309,-2,0
1776458458273,309,-49,0
1776458458274,309,-54,0
1776458458274,309,-29,0
1776458458275,309,-69,0
1776458458723,309,-96,0
1776458458724,309,-96,0
1776458458725,309,-133,0
1776458458725,309,-185,0
1776458458726,309,-237,0
1776458458726,309,-218,0
1776458458727,309,-183,0
1776458458727,309,-255,0
1776458458728,309,-277,0
1776458458728,309,-190,0
1776458458728,309,-195,0
1776458458729,309,-255,0
1776458458729,309,-190,0
1776458458729,309,-126,0
1776458458730,309,-190,0
1776458458731,309,-267,0
1776458458731,309,-227,0
1776458458732,309,-141,0
1776458458732,309,-148,0
1776458458735,309,-175,0
1776458458735,309,-148,0
1776458458736,309,-133,0
1776458458736,309,-138,0
1776458458736,309,-148,0
1776458458737,309,-151,0
1776458458737,309,-151,0
1776458458738,309,-170,0
1776458458738,309,-138,0
1776458458739,309,-79,0
1776458458739,309,-143,0
1776458458740,309,-218,0
1776458458740,309,-158,0
1776458458741,309,-104,0
1776458458741,309,-96,0
1776458458742,309,-123,0
1776458458742,309,-166,0
1776458458743,309,-158,0
1776458458743,309,-121,0
1776458458744,309,-111,0
1776458458744,309,-138,0
1776458458745,309,-151,0
1776458458745,309,-126,0
1776458458745,309,-113,0
1776458458746,309,-126,0
1776458458747,309,-121,0
1776458458747,309,-104,0
1776458458748,309,-76,0
1776458458748,309,-42,0
1776458458749,309,-74,0
1776458458750,309,-131,0
1776458458751,309,-146,0
1776458458752,309,-161,0
1776458458752,309,-32,0
1776458458753,309,356,0
1776458458754,309,527,0
1776458458754,309,56,0
1776458458755,309,-465,0
1776458458755,309,-401,0
1776458458756,309,-262,0
1776458458757,309,-307,0
1776458458757,309,-138,0
1776458458758,309,44,0
1776458458758,309,-29,0
1776458458759,309,-76,0
1776458458760,309,-9,0
1776458458760,309,-59,0
1776458458761,309,-96,0
1776458458761,309,-14,0
1776458458762,309,-17,0
1776458458763,309,-49,0
1776458458763,309,-99,0
1776458458764,309,-166,0
1776458458765,309,-81,0
1776458458922,309,-81,0
1776458458923,308,-81,0
1776458458923,307,-81,0
1776458458924,307,-81,0
1776458458925,306,-81,0
1776458458925,305,-81,0
1776458458926,306,-81,0
1776458458927,306,-81,0
1776458458928,305,-81,0
1776458458928,306,-81,0
1776458459398,306,-32,0
1776458459399,306,-47,0
1776458459399,306,54,0
1776458459400,306,81,0
1776458459400,306,32,0
1776458459401,306,32,0
1776458459401,306,44,0
1776458459401,306,84,0
1776458459402,306,101,0
1776458459402,306,113,0
1776458459404,306,143,0
1776458459405,306,81,0
1776458459406,306,-9,0
1776458459407,306,-44,0
1776458459407,306,-69,0
1776458459408,306,-81,0
1776458459408,306,-86,0
1776458459409,306,-143,0
1776458459410,306,-225,0
1776458459411,306,-213,0
1776458459411,306,-153,0
1776458459412,306,-141,0
1776458459413,306,-166,0
1776458459413,306,-220,0
1776458459414,306,-252,0
1776458459414,306,-245,0
1776458459415,306,-240,0
1776458459415,306,-190,0
1776458459416,306,-126,0
1776458459417,306,-148,0
1776458459418,306,-180,0
1776458459419,306,-175,0
1776458459419,306,-193,0
1776458459420,306,-148,0
1776458459420,306,-131,0
1776458459421,306,-287,0
1776458459422,306,-307,0
1776458459423,306,-84,0
1776458459423,306,-91,0
1776458459424,306,-215,0
1776458459424,306,-126,0
1776458459425,306,-111,0
1776458459426,306,-193,0
1776458459426,306,-215,0
1776458459427,306,-205,0
1776458459427,306,-138,0
1776458459428,306,-123,0
1776458459429,306,-190,0
1776458459429,306,-180,0
1776458459430,306,-131,0
1776458459430,306,-188,0
1776458459431,306,-247,0
1776458459432,306,-198,0
1776458459432,306,-111,0
1776458459433,306,-34,0
1776458459434,306,-86,0
1776458459434,306,-287,0
1776458459435,306,-289,0
1776458459435,306,-106,0
1776458459436,306,-143,0
1776458459437,306,-166,0
1776458459437,306,91,0
1776458459438,306,337,0
1776458459438,306,190,0
1776458459439,306,-322,0
1776458459440,306,-574,0
1776458459440,306,-364,0
1776458459441,306,-193,0
1776458459442,306,-183,0
1776458459442,306,-193,0
1776458459443,306,-156,0
1776458459443,306,-69,0
1776458459444,306,-27,0
1776458459893,306,-54,0
1776458459894,306,-54,0
1776458459894,306,2,0
1776458459895,306,29,0
1776458459895,306,-42,0
1776458459896,306,-123,0
1776458459896,306,-66,0
1776458459896,306,34,0
1776458459897,306,37,0
1776458459898,306,29,0
1776458459900,306,29,0
1776458459900,306,22,0
1776458459901,306,49,0
1776458459902,306,56,0
1776458459902,306,86,0
1776458459903,306,153,0
1776458459903,306,188,0
1776458459903,306,166,0
1776458459904,306,37,0
1776458459905,306,4,0
1776458459905,306,126,0
1776458459906,306,79,0
1776458459906,306,-27,0
1776458459907,306,-47,0
1776458459907,306,-118,0
1776458459907,306,-141,0
1776458459908,306,-188,0
1776458459908,306,-299,0
1776458459909,306,-292,0
1776458459909,306,-225,0
1776458459910,306,-178,0
1776458459910,306,-195,0
1776458459911,306,-223,0
1776458459911,306,-208,0
1776458459912,306,-208,0
1776458459912,306,-168,0
1776458459913,306,-133,0
1776458459913,306,-168,0
1776458459914,306,-175,0
1776458459914,306,-170,0
1776458459915,306,-185,0
1776458459915,306,-146,0
1776458459915,306,-128,0
1776458459916,306,-158,0
1776458459917,306,-113,0
1776458459917,306,-91,0
1776458459918,306,-156,0
1776458459918,306,-113,0
1776458459919,306,-47,0
1776458459920,306,-106,0
1776458459920,306,-163,0
1776458459921,306,-195,0
1776458459921,306,-252,0
1776458459922,306,-213,0
1776458459923,306,-99,0
1776458459923,306,-99,0
1776458459924,306,-156,0
1776458459924,306,-131,0
1776458459925,306,-99,0
1776458459926,306,-101,0
1776458459926,306,-91,0
1776458459927,306,-106,0
1776458459927,306,-136,0
1776458459928,306,-143,0
1776458459928,306,-168,0
1776458459929,306,-136,0
1776458459929,306,-74,0
1776458459930,306,-151,0
1776458459931,306,-223,0
1776458459931,306,-86,0
1776458459932,306,180,0
1776458459932,306,401,0
1776458459933,306,208,0
1776458459942,305,208,0
1776458459943,305,208,0
1776458459944,305,208,0
1776458459944,304,208,0
1776458459945,304,208,0
1776458459946,304,208,0
1776458459946,304,208,0
1776458459947,304,208,0
1776458459947,304,208,0
1776458459948,303,208,0
1776458460388,303,-361,0
1776458460389,303,-577,0
1776458460390,303,-334,0
1776458460390,303,-166,0
1776458460391,303,-153,0
1776458460392,303,-126,0
1776458460392,303,-116,0
1776458460393,303,-126,0
1776458460393,303,-84,0
1776458460395,303,-56,0
1776458460397,303,-121,0
1776458460399,303,-163,0
1776458460400,303,-94,0
1776458460401,303,-49,0
1776458460402,303,-86,0
1776458460402,303,-79,0
1776458460403,303,-49,0
1776458460404,303,-79,0
1776458460404,303,-37,0
1776458460405,303,29,0
1776458460405,303,-47,0
1776458460406,303,-61,0
1776458460407,303,34,0
1776458460407,303,49,0
1776458460408,303,61,0
1776458460409,303,111,0
1776458460409,303,113,0
1776458460410,303,96,0
1776458460410,303,84,0
1776458460411,303,52,0
1776458460411,303,12,0
1776458460412,303,-66,0
1776458460413,303,-183,0
1776458460414,303,-185,0
1776458460414,303,-156,0
1776458460415,303,-213,0
1776458460415,303,-270,0
1776458460416,303,-260,0
1776458460417,303,-223,0
1776458460418,303,-237,0
1776458460418,303,-272,0
1776458460419,303,-240,0
1776458460420,303,-213,0
1776458460420,303,-245,0
1776458460421,303,-242,0
1776458460421,303,-203,0
1776458460422,303,-195,0
1776458460423,303,-200,0
1776458460423,303,-195,0
1776458460424,303,-183,0
1776458460424,303,-183,0
1776458460425,303,-210,0
1776458460426,303,-208,0
1776458460426,303,-185,0
1776458460427,303,-208,0
1776458460427,303,-213,0
1776458460428,303,-156,0
1776458460429,303,-180,0
1776458460430,303,-267,0
1776458460430,303,-235,0
1776458460431,303,-170,0
1776458460431,303,-193,0
1776458460432,303,-242,0
1776458460433,303,-260,0
1776458460433,303,-237,0
1776458460434,303,-205,0
1776458460435,303,-218,0
1776458460435,303,-250,0
1776458460436,303,-237,0
1776458460436,303,-198,0
1776458460437,303,-190,0
1776458460438,303,-203,0
1776458460438,303,-223,0
1776458460961,303,-223,0
1776458460962,303,-223,0
1776458460963,302,-223,0
1776458460963,301,-223,0
1776458460964,301,-223,0
1776458460965,301,-223,0
1776458460965,300,-223,0
1776458460966,300,-223,0
1776458460966,300,-223,0
1776458460966,300,-223,0
1776458461018,300,-235,0
1776458461019,300,-237,0
1776458461020,300,-237,0
1776458461020,300,-235,0
1776458461021,300,-257,0
1776458461022,300,-304,0
1776458461022,300,-262,0
1776458461023,300,0,0
1776458461024,300,322,0
1776458461025,300,175,0
1776458461025,300,-379,0
1776458461026,300,-567,0
1776458461027,300,-351,0
1776458461027,300,-277,0
1776458461028,300,-322,0
1776458461028,300,-265,0
1776458461029,300,-225,0
1776458461030,300,-255,0
1776458461030,300,-250,0
1776458461031,300,-227,0
1776458461031,300,-227,0
1776458461032,300,-230,0
1776458461033,300,-227,0
1776458461034,300,-220,0
1776458461036,300,-200,0
1776458461036,300,-195,0
1776458461037,300,-200,0
1776458461037,300,-183,0
1776458461038,300,-163,0
1776458461038,300,-166,0
1776458461039,300,-153,0
1776458461040,300,-126,0
1776458461040,300,-113,0
1776458461041,300,-91,0
1776458461042,300,-49,0
1776458461042,300,-24,0
1776458461043,300,-32,0
1776458461043,300,-49,0
1776458461044,300,-44,0
1776458461045,300,-59,0
1776458461045,300,-118,0
1776458461046,300,-168,0
1776458461046,300,-198,0
1776458461047,300,-242,0
1776458461047,300,-294,0
1776458461048,300,-327,0
1776458461049,300,-332,0
1776458461050,300,-334,0
1776458461051,300,-324,0
1776458461051,300,-314,0
1776458461052,300,-319,0
1776458461052,300,-322,0
1776458461053,300,-314,0
1776458461054,300,-304,0
1776458461054,300,-292,0
1776458461055,300,-297,0
1776458461055,300,-294,0
1776458461056,300,-280,0
1776458461057,300,-275,0
1776458461057,300,-270,0
1776458461058,300,-262,0
1776458461059,300,-267,0
1776458461059,300,-280,0
1776458461060,300,-272,0
1776458461060,300,-252,0
1776458461061,300,-257,0
1776458461062,300,-270,0
1776458461062,300,-260,0
1776458461063,300,-252,0
1776458461063,300,-260,0
1776458461064,300,-252,0
1776458461065,300,-250,0
1776458461065,300,-257,0
1776458461558,300,-262,0
1776458461559,300,-262,0
1776458461560,300,-257,0
1776458461560,300,-245,0
1776458461561,300,-245,0
1776458461561,300,-242,0
1776458461562,300,-220,0
1776458461562,300,-208,0
1776458461563,300,-225,0
1776458461563,300,-218,0
1776458461564,300,-208,0
1776458461564,300,-255,0
1776458461565,300,-287,0
1776458461565,300,-257,0
1776458461566,300,-252,0
1776458461566,300,-289,0
1776458461567,300,-297,0
1776458461567,300,-128,0
1776458461568,300,230,0
1776458461568,300,304,0
1776458461569,300,-173,0
1776458461569,300,-527,0
1776458461570,300,-389,0
1776458461571,300,-260,0
1776458461571,300,-304,0
1776458461572,300,-297,0
1776458461572,300,-270,0
1776458461573,300,-277,0
1776458461574,300,-262,0
1776458461574,300,-240,0
1776458461575,300,-242,0
1776458461575,300,-245,0
1776458461576,300,-232,0
1776458461576,300,-223,0
1776458461577,300,-215,0
1776458461578,300,-190,0
1776458461578,300,-161,0
1776458461579,300,-178,0
1776458461579,300,-257,0
1776458461580,300,-260,0
1776458461580,300,-170,0
1776458461581,300,-153,0
1776458461581,300,-156,0
1776458461582,300,-94,0
1776458461583,300,-52,0
1776458461584,300,-34,0
1776458461584,300,-4,0
1776458461585,300,-37,0
1776458461586,300,-89,0
1776458461586,300,-86,0
1776458461587,300,-146,0
1776458461588,300,-205,0
1776458461588,300,-190,0
1776458461589,300,-227,0
1776458461590,300,-294,0
1776458461590,300,-307,0
1776458461591,300,-309,0
1776458461591,300,-309,0
1776458461592,300,-302,0
1776458461593,300,-289,0
1776458461593,300,-275,0
1776458461594,300,-294,0
1776458461594,300,-297,0
1776458461595,300,-245,0
1776458461596,300,-287,0
1776458461596,300,-371,0
1776458461597,300,-329,0
1776458461597,300,-270,0
1776458461598,300,-275,0
1776458461599,300,-275,0
1776458461600,300,-267,0
1776458461601,300,-260,0
1776458461601,300,-242,0
1776458461983,299,-242,0
1776458461984,299,-242,0
1776458461984,299,-242,0
1776458461985,299,-242,0
1776458461985,299,-242,0
1776458461986,299,-242,0
1776458461986,299,-242,0
1776458461987,299,-242,0
1776458461987,299,-242,0
1776458461988,299,-242,0
1776458461988,301,-242,0
1776458462098,301,-242,0
1776458462099,301,-270,0
1776458462100,301,-270,0
1776458462101,301,-247,0
1776458462102,301,-250,0
1776458462103,301,-255,0
1776458462104,301,-245,0
1776458462104,301,-257,0
1776458462105,301,-252,0
1776458462106,301,-237,0
1776458462106,301,-265,0
1776458462107,301,-277,0
1776458462107,301,-250,0
1776458462108,301,-242,0
1776458462109,301,-270,0
1776458462110,301,-262,0
1776458462110,301,-240,0
1776458462111,301,-260,0
1776458462111,301,-255,0
1776458462112,301,-205,0
1776458462113,301,-203,0
1776458462113,301,-215,0
1776458462114,301,-175,0
1776458462114,301,-175,0
1776458462115,301,-252,0
1776458462116,301,-250,0
1776458462116,301,-198,0
1776458462117,301,-247,0
1776458462118,301,-284,0
1776458462118,301,-240,0
1776458462119,301,-237,0
1776458462120,301,-84,0
1776458462120,301,270,0
1776458462121,301,215,0
1776458462122,301,-304,0
1776458462122,301,-532,0
1776458462123,301,-386,0
1776458462123,301,-302,0
1776458462124,301,-280,0
1776458462125,301,-237,0
1776458462125,301,-218,0
1776458462126,301,-227,0
1776458462127,301,-223,0
1776458462128,301,-213,0
1776458462129,301,-200,0
1776458462130,301,-173,0
1776458462130,301,-178,0
1776458462131,301,-203,0
1776458462131,301,-173,0
1776458462132,301,-153,0
1776458462133,301,-175,0
1776458462133,301,-153,0
1776458462134,301,-99,0
1776458462135,301,-116,0
1776458462135,301,-170,0
1776458462136,301,-133,0
1776458462136,301,-47,0
1776458462137,301,-14,0
1776458462138,301,0,0
1776458462138,301,2,0
1776458462139,301,-7,0
1776458462139,301,-9,0
1776458462140,301,-27,0
1776458462141,301,-24,0
1776458462141,301,-14,0
1776458462142,301,-71,0
1776458462143,301,-146,0
1776458462143,301,-183,0
1776458462144,301,-245,0
1776458462144,301,-272,0
1776458462145,301,-225,0
1776458462145,301,-237,0
1776458462146,301,-287,0
1776458462728,301,-252,0
1776458462729,301,-220,0
1776458462729,301,-275,0
1776458462730,301,-272,0
1776458462730,301,-185,0
1776458462731,301,-195,0
1776458462731,301,-257,0
1776458462731,301,-232,0
1776458462732,301,-205,0
1776458462732,301,-200,0
1776458462733,301,-153,0
1776458462733,301,-158,0
1776458462734,301,-230,0
1776458462734,301,-220,0
1776458462734,301,-153,0
1776458462735,301,-131,0
1776458462735,301,-131,0
1776458462735,301,-158,0
1776458462736,301,-215,0
1776458462737,301,-198,0
1776458462737,301,-121,0
1776458462738,301,-104,0
1776458462738,301,-143,0
1776458462740,301,-173,0
1776458462741,301,-166,0
1776458462741,301,-156,0
1776458462742,301,-151,0
1776458462743,301,-106,0
1776458462743,301,-123,0
1776458462744,301,-170,0
1776458462744,301,-133,0
1776458462745,301,-133,0
1776458462745,301,-168,0
1776458462746,301,-148,0
1776458462747,301,-133,0
1776458462747,301,-109,0
1776458462748,301,-84,0
1776458462749,301,-89,0
1776458462749,301,-99,0
1776458462750,301,-143,0
1776458462751,301,-168,0
1776458462751,301,-138,0
1776458462752,301,-158,0
1776458462753,301,-190,0
1776458462753,301,-104,0
1776458462754,301,-118,0
1776458462754,301,-277,0
1776458462755,301,-121,0
1776458462756,301,317,0
1776458462756,301,505,0
1776458462757,301,136,0
1776458462758,301,-451,0
1776458462758,301,-562,0
1776458462759,301,-309,0
1776458462759,301,-227,0
1776458462760,301,-193,0
1776458462761,301,-81,0
1776458462761,301,-42,0
1776458462762,301,-79,0
1776458462762,301,-118,0
1776458462763,301,-118,0
1776458462764,301,-49,0
1776458462764,301,-34,0
1776458462765,301,-89,0
1776458462765,301,-32,0
1776458462766,301,0,0
1776458462767,301,-136,0
1776458462767,301,-200,0
1776458462768,301,-69,0
1776458462769,301,42,0
1776458462769,301,34,0
1776458462770,301,19,0
1776458462771,301,-2,0
1776458462991,299,-2,0
1776458462992,235,-2,0
1776458462993,297,-2,0
1776458462994,282,-2,0
1776458462995,300,-2,0
1776458462996,300,-2,0
1776458462997,301,-2,0
1776458462997,301,-2,0
1776458462998,301,-2,0
1776458462999,302,-2,0
1776458463269,302,-4,0
1776458463269,302,52,0
1776458463270,302,84,0
1776458463271,302,74,0
1776458463272,302,71,0
1776458463272,302,104,0
1776458463273,302,104,0
1776458463273,302,27,0
1776458463275,302,-9,0
1776458463276,302,-49,0
1776458463277,302,-141,0
1776458463277,302,-136,0
1776458463278,302,-118,0
1776458463278,302,-190,0
1776458463279,302,-203,0
1776458463279,302,-185,0
1776458463280,302,-247,0
1776458463281,302,-255,0
1776458463281,302,-198,0
1776458463282,302,-190,0
1776458463282,302,-193,0
1776458463283,302,-242,0
1776458463284,302,-322,0
1776458463285,302,-237,0
1776458463285,302,-131,0
1776458463286,302,-143,0
1776458463286,302,-163,0
1776458463287,302,-153,0
1776458463287,302,-81,0
1776458463288,302,-131,0
1776458463288,302,-232,0
1776458463289,302,-126,0
1776458463289,302,-54,0
1776458463290,302,-161,0
1776458463291,302,-195,0
1776458463291,302,-128,0
1776458463292,302,-146,0
1776458463292,302,-151,0
1776458463293,302,-4,0
1776458463294,302,49,0
1776458463294,302,-74,0
1776458463295,302,-158,0
1776458463295,302,-156,0
1776458463296,302,-133,0
1776458463296,302,-121,0
1776458463297,302,-146,0
1776458463297,302,-138,0
1776458463298,302,-84,0
1776458463298,302,-121,0
1776458463299,302,-156,0
1776458463300,302,-66,0
1776458463300,302,-61,0
1776458463301,302,-131,0
1776458463301,302,-101,0
1776458463302,302,-89,0
1776458463303,302,-123,0
1776458463303,302,-121,0
1776458463304,302,-84,0
1776458463304,302,-74,0
1776458463305,302,-136,0
1776458463305,302,-116,0
1776458463306,302,-59,0
1776458463306,302,-71,0
1776458463307,302,183,0
1776458463308,302,441,0
1776458463308,302,49,0
1776458463309,302,-475,0
1776458463309,302,-465,0
1776458463310,302,-245,0
1776458463310,302,-146,0
1776458463311,302,-91,0
1776458463312,302,-91,0
1776458463312,302,-116,0
1776458463762,302,-81,0
1776458463763,302,-47,0
1776458463764,302,-76,0
1776458463764,302,-79,0
1776458463765,302,-7,0
1776458463766,302,17,0
1776458463766,302,-39,0
1776458463767,302,-66,0
1776458463767,302,-32,0
1776458463768,302,-29,0
1776458463768,302,-64,0
1776458463769,302,-32,0
1776458463769,302,37,0
1776458463770,302,32,0
1776458463770,302,0,0
1776458463771,302,47,0
1776458463771,302,123,0
1776458463772,302,128,0
1776458463772,302,96,0
1776458463773,302,109,0
1776458463773,302,118,0
1776458463774,302,56,0
1776458463774,302,14,0
1776458463775,302,19,0
1776458463775,302,-47,0
1776458463776,302,-126,0
1776458463776,302,-141,0
1776458463777,302,-146,0
1776458463777,302,-170,0
1776458463778,302,-232,0
1776458463778,302,-307,0
1776458463779,302,-282,0
1776458463780,302,-200,0
1776458463780,302,-180,0
1776458463781,302,-163,0
1776458463781,302,-173,0
1776458463782,302,-237,0
1776458463782,302,-250,0
1776458463782,302,-215,0
1776458463783,302,-198,0
1776458463785,302,-193,0
1776458463785,302,-173,0
1776458463786,302,-156,0
1776458463786,302,-133,0
1776458463787,302,-133,0
1776458463787,302,-198,0
1776458463788,302,-225,0
1776458463789,302,-173,0
1776458463789,302,-151,0
1776458463790,302,-185,0
1776458463790,302,-185,0
1776458463791,302,-136,0
1776458463791,302,-136,0
1776458463792,302,-205,0
1776458463793,302,-218,0
1776458463793,302,-173,0
1776458463794,302,-188,0
1776458463794,302,-193,0
1776458463795,302,-163,0
1776458463796,302,-183,0
1776458463796,302,-215,0
1776458463797,302,-203,0
1776458463797,302,-168,0
1776458463798,302,-156,0
1776458463799,302,-173,0
1776458463799,302,-168,0
1776458463800,302,-133,0
1776458463801,302,-131,0
1776458463801,302,-143,0
1776458463802,302,-141,0
1776458463803,302,-178,0
1776458463803,302,-205,0
1776458463804,302,-178,0
1776458464015,302,-178,0
1776458464016,302,-178,0
1776458464017,302,-178,0
1776458464017,302,-178,0
1776458464018,302,-178,0
1776458464019,302,-178,0
1776458464020,301,-178,0
1776458464021,301,-178,0
1776458464021,301,-178,0
1776458464022,301,-178,0
1776458464393,301,-170,0
1776458464394,301,-203,0
1776458464394,301,-240,0
1776458464395,301,-190,0
1776458464395,301,109,0
1776458464396,301,426,0
1776458464396,301,190,0
1776458464397,301,-361,0
1776458464398,301,-470,0
1776458464398,301,-284,0
1776458464399,301,-272,0
1776458464401,301,-280,0
1776458464401,301,-213,0
1776458464402,301,-213,0
1776458464403,301,-240,0
1776458464404,301,-230,0
1776458464404,301,-218,0
1776458464405,301,-208,0
1776458464405,301,-200,0
1776458464406,301,-200,0
1776458464406,301,-193,0
1776458464407,301,-188,0
1776458464407,301,-185,0
1776458464408,301,-170,0
1776458464408,301,-158,0
1776458464409,301,-158,0
1776458464409,301,-156,0
1776458464410,301,-141,0
1776458464410,301,-113,0
1776458464411,301,-94,0
1776458464411,301,-84,0
1776458464412,301,-54,0
1776458464412,301,-29,0
1776458464413,301,-34,0
1776458464413,301,-37,0
1776458464414,301,-44,0
1776458464414,301,-71,0
1776458464415,301,-91,0
1776458464416,301,-133,0
1776458464417,301,-210,0
1776458464418,301,-245,0
1776458464418,301,-247,0
1776458464419,301,-280,0
1776458464420,301,-299,0
1776458464420,301,-292,0
1776458464421,301,-289,0
1776458464422,301,-287,0
1776458464422,301,-280,0
1776458464423,301,-272,0
1776458464424,301,-260,0
1776458464424,301,-255,0
1776458464425,301,-247,0
1776458464425,301,-242,0
1776458464426,301,-245,0
1776458464427,301,-235,0
1776458464427,301,-223,0
1776458464428,301,-227,0
1776458464428,301,-223,0
1776458464429,301,-210,0
1776458464430,301,-215,0
1776458464430,301,-215,0
1776458464431,301,-200,0
1776458464431,301,-200,0
1776458464432,301,-213,0
1776458464433,301,-208,0
1776458464434,301,-195,0
1776458464434,301,-205,0
1776458464435,301,-210,0
1776458464435,301,-203,0
1776458464436,301,-200,0
1776458464437,301,-195,0
1776458464437,301,-195,0
1776458464438,301,-205,0
1776458464933,301,-210,0
1776458464934,301,-205,0
1776458464935,301,-203,0
1776458464935,301,-198,0
1776458464936,301,-188,0
1776458464936,301,-190,0
1776458464937,301,-195,0
1776458464937,301,-178,0
1776458464938,301,-151,0
1776458464938,301,-146,0
1776458464939,301,-161,0
1776458464939,301,-183,0
1776458464940,301,-188,0
1776458464941,301,-185,0
1776458464941,301,-175,0
1776458464942,301,-170,0
1776458464942,301,-227,0
1776458464943,301,-257,0
1776458464944,301,-54,0
1776458464944,301,307,0
1776458464945,301,344,0
1776458464945,301,-118,0
1776458464946,301,-451,0
1776458464946,301,-327,0
1776458464946,301,-210,0
1776458464947,301,-255,0
1776458464947,301,-255,0
1776458464948,301,-220,0
1776458464948,301,-213,0
1776458464950,301,-220,0
1776458464950,301,-218,0
1776458464951,301,-200,0
1776458464951,301,-190,0
1776458464952,301,-198,0
1776458464952,301,-193,0
1776458464953,301,-175,0
1776458464953,301,-175,0
1776458464954,301,-183,0
1776458464955,301,-190,0
1776458464955,301,-213,0
1776458464956,301,-195,0
1776458464956,301,-146,0
1776458464957,301,-143,0
1776458464957,301,-161,0
1776458464957,301,-121,0
1776458464958,301,-54,0
1776458464959,301,-29,0
1776458464959,301,-32,0
1776458464960,301,-44,0
1776458464960,301,-101,0
1776458464961,301,-113,0
1776458464962,301,-89,0
1776458464963,301,-128,0
1776458464963,301,-185,0
1776458464964,301,-205,0
1776458464965,301,-242,0
1776458464965,301,-307,0
1776458464966,301,-341,0
1776458464967,301,-327,0
1776458464967,301,-312,0
1776458464968,301,-317,0
1776458464969,301,-299,0
1776458464969,301,-282,0
1776458464970,301,-284,0
1776458464970,301,-280,0
1776458464971,301,-270,0
1776458464972,301,-260,0
1776458464972,301,-262,0
1776458464973,301,-282,0
1776458464973,301,-275,0
1776458464974,301,-237,0
1776458464975,301,-225,0
1776458464975,301,-230,0
1776458465033,301,-230,0
1776458465034,301,-230,0
1776458465035,301,-230,0
1776458465035,301,-230,0
1776458465037,301,-230,0
1776458465038,300,-230,0
1776458465039,301,-230,0
1776458465039,300,-230,0
1776458465040,300,-230,0
1776458465040,300,-230,0
1776458465473,300,-223,0
1776458465474,300,-210,0
1776458465475,300,-225,0
1776458465475,300,-232,0
1776458465476,300,-218,0
1776458465476,300,-215,0
1776458465477,300,-200,0
1776458465477,300,-190,0
1776458465478,300,-200,0
1776458465479,300,-218,0
1776458465479,300,-220,0
1776458465480,300,-185,0
1776458465481,300,-188,0
1776458465482,300,-210,0
1776458465482,300,-195,0
1776458465483,300,-190,0
1776458465483,300,-183,0
1776458465484,300,-163,0
1776458465484,300,-195,0
1776458465485,300,-195,0
1776458465485,300,-126,0
1776458465486,300,-138,0
1776458465486,300,-213,0
1776458465487,300,-173,0
1776458465487,300,-89,0
1776458465488,300,-86,0
1776458465488,300,-123,0
1776458465489,300,-148,0
1776458465489,300,-138,0
1776458465490,300,-148,0
1776458465490,300,-185,0
1776458465491,300,-146,0
1776458465491,300,-101,0
1776458465492,300,-101,0
1776458465492,300,64,0
1776458465493,300,341,0
1776458465493,300,198,0
1776458465494,300,-304,0
1776458465494,300,-451,0
1776458465495,300,-250,0
1776458465495,300,-158,0
1776458465496,300,-185,0
1776458465496,300,-183,0
1776458465496,300,-138,0
1776458465497,300,-96,0
1776458465497,300,-47,0
1776458465498,300,-66,0
1776458465498,300,-190,0
1776458465500,300,-208,0
1776458465501,300,-79,0
1776458465502,300,-64,0
1776458465502,300,-161,0
1776458465503,300,-143,0
1776458465504,300,-42,0
1776458465504,300,-24,0
1776458465505,300,-96,0
1776458465506,300,-126,0
1776458465506,300,-91,0
1776458465507,300,-47,0
1776458465507,300,-29,0
1776458465508,300,-2,0
1776458465509,300,47,0
1776458465509,300,19,0
1776458465510,300,-29,0
1776458465510,300,-4,0
1776458465511,300,74,0
1776458465511,300,109,0
1776458465512,300,-22,0
1776458465512,300,-173,0
1776458465513,300,-156,0
1776458465514,300,-141,0
1776458465514,300,-240,0
1776458465515,300,-287,0
1776458466046,300,-287,0
1776458466047,299,-287,0
1776458466047,300,-287,0
1776458466048,126,-287,0
1776458466049,299,-287,0
1776458466049,300,-287,0
1776458466050,301,-287,0
1776458466050,301,-287,0
1776458466051,301,-287,0
1776458466052,301,-287,0
1776458466057,301,-242,0
1776458466058,301,-250,0
1776458466058,301,-294,0
1776458466059,301,-260,0
1776458466059,301,-198,0
1776458466060,301,-180,0
1776458466061,301,-213,0
1776458466061,301,-230,0
1776458466062,301,-170,0
1776458466062,301,-185,0
1776458466063,301,-307,0
1776458466063,301,-307,0
1776458466064,301,-128,0
1776458466065,301,-34,0
1776458466066,301,-203,0
1776458466068,301,-329,0
1776458466069,301,-188,0
1776458466070,301,-99,0
1776458466072,301,-208,0
1776458466072,301,-215,0
1776458466072,301,-113,0
1776458466073,301,-123,0
1776458466074,301,-190,0
1776458466074,301,-170,0
1776458466075,301,-123,0
1776458466076,301,-138,0
1776458466076,301,-136,0
1776458466077,301,-163,0
1776458466077,301,-223,0
1776458466078,301,-180,0
1776458466079,301,-215,0
1776458466079,301,-294,0
1776458466080,301,-163,0
1776458466080,301,-52,0
1776458466081,301,-113,0
1776458466083,301,-133,0
1776458466083,301,-138,0
1776458466084,301,-136,0
1776458466085,301,-49,0
1776458466085,301,-101,0
1776458466086,301,-235,0
1776458466087,301,-148,0
1776458466087,301,-52,0
1776458466088,301,-136,0
1776458466088,301,-220,0
1776458466089,301,-275,0
1776458466090,301,-156,0
1776458466090,301,277,0
1776458466091,301,458,0
1776458466091,301,-14,0
1776458466092,301,-441,0
1776458466093,301,-344,0
1776458466093,301,-227,0
1776458466094,301,-270,0
1776458466095,301,-163,0
1776458466095,301,-81,0
1776458466096,301,-208,0
1776458466096,301,-208,0
1776458466097,301,-101,0
1776458466098,301,-123,0
1776458466098,301,-96,0
1776458466099,301,0,0
1776458466100,301,-29,0
1776458466101,301,-84,0
1776458466101,301,-96,0
1776458466102,301,-91,0
1776458466102,301,-69,0
1776458466103,301,-56,0
1776458466104,301,-7,0
1776458466104,301,-34,0
1776458466105,301,-113,0
1776458466105,301,-74,0
1776458466106,301,-9,0
1776458466599,301,2,0
1776458466599,301,-19,0
1776458466600,301,29,0
1776458466601,301,138,0
1776458466601,301,141,0
1776458466602,301,37,0
1776458466602,301,-22,0
1776458466603,301,69,0
1776458466604,301,185,0
1776458466604,301,-42,0
1776458466605,301,-398,0
1776458466606,301,-297,0
1776458466606,301,-76,0
1776458466606,301,-170,0
1776458466607,301,-232,0
1776458466608,301,-128,0
1776458466608,301,-94,0
1776458466609,301,-175,0
1776458466610,301,-225,0
1776458466611,301,-153,0
1776458466611,301,-158,0
1776458466612,301,-193,0
1776458466613,301,-49,0
1776458466613,301,-94,0
1776458466614,301,-337,0
1776458466614,301,-250,0
1776458466615,301,-29,0
1776458466616,301,-81,0
1776458466617,301,-168,0
1776458466618,301,-111,0
1776458466618,301,-74,0
1776458466619,301,-148,0
1776458466619,301,-173,0
1776458466620,301,-86,0
1776458466621,301,-89,0
1776458466621,301,-143,0
1776458466622,301,-94,0
1776458466622,301,-76,0
1776458466623,301,-116,0
1776458466624,301,-109,0
1776458466624,301,-104,0
1776458466625,301,-126,0
1776458466625,301,-74,0
1776458466626,301,-52,0
1776458466627,301,-128,0
1776458466627,301,-131,0
1776458466628,301,-99,0
1776458466629,301,-101,0
1776458466629,301,-54,0
1776458466630,301,-54,0
1776458466630,301,-89,0
1776458466631,301,-47,0
1776458466632,301,-56,0
1776458466632,301,-170,0
1776458466633,301,-178,0
1776458466634,301,-66,0
1776458466634,301,47,0
1776458466635,301,280,0
1776458466635,301,356,0
1776458466636,301,-99,0
1776458466637,301,-470,0
1776458466637,301,-341,0
1776458466638,301,-200,0
1776458466638,301,-183,0
1776458466639,301,-136,0
1776458466640,301,-113,0
1776458466640,301,-86,0
1776458466641,301,-64,0
1776458466641,301,-99,0
1776458466642,301,-91,0
1776458466643,301,-69,0
1776458466643,301,-86,0
1776458466644,301,-76,0
1776458467066,301,-76,0
1776458467067,301,-76,0
1776458467068,301,-76,0
1776458467068,300,-76,0
1776458467069,300,-76,0
1776458467069,300,-76,0
1776458467070,299,-76,0
1776458467071,300,-76,0
1776458467072,300,-76,0
1776458467073,300,-76,0
1776458467137,300,-49,0
1776458467138,300,-39,0
1776458467139,300,-24,0
1776458467140,300,-47,0
1776458467141,300,-79,0
1776458467142,300,-54,0
1776458467142,300,-24,0
1776458467143,300,0,0
1776458467144,300,37,0
1776458467145,300,56,0
1776458467145,300,81,0
1776458467146,300,96,0
1776458467146,300,81,0
1776458467147,300,86,0
1776458467148,300,89,0
1776458467149,300,39,0
1776458467150,300,-2,0
1776458467150,300,-29,0
1776458467151,300,-111,0
1776458467151,300,-163,0
1776458467152,300,-173,0
1776458467153,300,-218,0
1776458467153,300,-213,0
1776458467154,300,-175,0
1776458467154,300,-250,0
1776458467155,300,-314,0
1776458467156,300,-272,0
1776458467156,300,-247,0
1776458467157,300,-240,0
1776458467157,300,-240,0
1776458467158,300,-252,0
1776458467158,300,-213,0
1776458467159,300,-180,0
1776458467160,300,-218,0
1776458467160,300,-227,0
1776458467161,300,-158,0
1776458467162,300,-173,0
1776458467162,300,-267,0
1776458467163,300,-235,0
1776458467163,300,-156,0
1776458467164,300,-180,0
1776458467165,300,-218,0
1776458467166,300,-190,0
1776458467166,300,-170,0
1776458467167,300,-193,0
1776458467167,300,-235,0
1776458467168,300,-247,0
1776458467169,300,-210,0
1776458467169,300,-203,0
1776458467170,300,-208,0
1776458467170,300,-193,0
1776458467171,300,-210,0
1776458467172,300,-242,0
1776458467172,300,-232,0
1776458467173,300,-225,0
1776458467173,300,-240,0
1776458467174,300,-220,0
1776458467175,300,-210,0
1776458467176,300,-227,0
1776458467176,300,-195,0
1776458467177,300,-163,0
1776458467177,300,-190,0
1776458467178,300,-245,0
1776458467179,300,-257,0
1776458467179,300,-242,0
1776458467180,300,-235,0
1776458467180,300,-235,0
1776458467181,300,-262,0
1776458467182,300,-230,0
1776458467182,300,37,0
1776458467183,300,374,0
1776458467184,300,257,0
1776458467184,300,-287,0
1776458467767,300,-503,0
1776458467768,300,-302,0
1776458467769,300,-242,0
1776458467769,300,-309,0
1776458467770,300,-270,0
1776458467770,300,-235,0
1776458467771,300,-250,0
1776458467771,300,-227,0
1776458467772,300,-203,0
1776458467772,300,-210,0
1776458467773,300,-205,0
1776458467773,300,-183,0
1776458467774,300,-185,0
1776458467775,300,-190,0
1776458467776,300,-180,0
1776458467777,300,-173,0
1776458467777,300,-158,0
1776458467779,300,-131,0
1776458467780,300,-133,0
1776458467780,300,-138,0
1776458467781,300,-109,0
1776458467782,300,-74,0
1776458467782,300,-59,0
1776458467783,300,-54,0
1776458467784,300,-34,0
1776458467784,300,-22,0
1776458467785,300,-29,0
1776458467786,300,-34,0
1776458467786,300,-47,0
1776458467787,300,-79,0
1776458467787,300,-121,0
1776458467788,300,-163,0
1776458467789,300,-205,0
1776458467789,300,-235,0
1776458467790,300,-252,0
1776458467790,300,-272,0
1776458467791,300,-280,0
1776458467792,300,-275,0
1776458467792,300,-267,0
1776458467793,300,-272,0
1776458467793,300,-267,0
1776458467794,300,-252,0
1776458467795,300,-250,0
1776458467795,300,-247,0
1776458467796,300,-230,0
1776458467796,300,-220,0
1776458467797,300,-225,0
1776458467798,300,-220,0
1776458467798,300,-203,0
1776458467799,300,-208,0
1776458467800,300,-218,0
1776458467800,300,-203,0
1776458467801,300,-193,0
1776458467801,300,-195,0
1776458467802,300,-190,0
1776458467803,300,-190,0
1776458467803,300,-193,0
1776458467804,300,-183,0
1776458467805,300,-175,0
1776458467805,300,-175,0
1776458467806,300,-178,0
1776458467806,300,-183,0
1776458467807,300,-183,0
1776458467808,300,-178,0
1776458467808,300,-175,0
1776458467809,300,-156,0
1776458467809,300,-143,0
1776458467810,300,-143,0
1776458467811,300,-141,0
1776458467811,300,-133,0
1776458467812,300,-136,0
1776458467812,300,-151,0
1776458467813,300,-161,0
1776458468085,300,-161,0
1776458468086,300,-161,0
1776458468086,299,-161,0
1776458468087,300,-161,0
1776458468087,299,-161,0
1776458468088,299,-161,0
1776458468088,299,-161,0
1776458468089,299,-161,0
1776458468089,299,-161,0
1776458468090,299,-161,0
1776458468090,298,-161,0
1776458468307,298,-153,0
1776458468308,298,-156,0
1776458468308,298,-163,0
1776458468309,298,-175,0
1776458468310,298,-193,0
1776458468310,298,-89,0
1776458468311,298,247,0
1776458468311,298,433,0
1776458468313,298,37,0
1776458468314,298,-423,0
1776458468315,298,-366,0
1776458468315,298,-188,0
1776458468316,298,-210,0
1776458468316,298,-220,0
1776458468317,298,-183,0
1776458468317,298,-198,0
1776458468318,298,-225,0
1776458468319,298,-225,0
1776458468320,298,-195,0
1776458468320,298,-178,0
1776458468321,298,-185,0
1776458468322,298,-178,0
1776458468322,298,-153,0
1776458468323,298,-146,0
1776458468323,298,-148,0
1776458468324,298,-136,0
1776458468325,298,-128,0
1776458468325,298,-121,0
1776458468326,298,-104,0
1776458468326,298,-86,0
1776458468327,298,-56,0
1776458468328,298,-22,0
1776458468328,298,-14,0
1776458468329,298,-4,0
1776458468329,298,34,0
1776458468330,298,32,0
1776458468331,298,-19,0
1776458468331,298,-54,0
1776458468332,298,-86,0
1776458468333,298,-128,0
1776458468334,298,-146,0
1776458468334,298,-190,0
1776458468335,298,-250,0
1776458468335,298,-260,0
1776458468336,298,-262,0
1776458468337,298,-282,0
1776458468337,298,-292,0
1776458468338,298,-297,0
1776458468338,298,-289,0
1776458468339,298,-277,0
1776458468340,298,-297,0
1776458468340,298,-294,0
1776458468341,298,-260,0
1776458468341,298,-275,0
1776458468342,298,-284,0
1776458468343,298,-240,0
1776458468343,298,-247,0
1776458468344,298,-297,0
1776458468344,298,-240,0
1776458468345,298,-203,0
1776458468346,298,-265,0
1776458468346,298,-255,0
1776458468347,298,-213,0
1776458468347,298,-237,0
1776458468348,298,-257,0
1776458468349,298,-245,0
1776458468350,298,-225,0
1776458468350,298,-215,0
1776458468351,298,-230,0
1776458468351,298,-247,0
1776458468352,298,-272,0
1776458468353,298,-299,0
1776458468353,298,-272,0
1776458468847,298,-232,0
1776458468848,298,-232,0
1776458468849,298,-232,0
1776458468849,298,-220,0
1776458468850,298,-205,0
1776458468850,298,-168,0
1776458468851,298,-170,0
1776458468852,298,-210,0
1776458468852,298,-237,0
1776458468854,298,-272,0
1776458468855,298,-272,0
1776458468856,298,-227,0
1776458468857,298,-220,0
1776458468857,298,-255,0
1776458468858,298,-250,0
1776458468859,298,-54,0
1776458468860,298,265,0
1776458468860,298,215,0
1776458468861,298,-297,0
1776458468861,298,-567,0
1776458468862,298,-374,0
1776458468863,298,-262,0
1776458468863,298,-299,0
1776458468864,298,-223,0
1776458468865,298,-163,0
1776458468865,298,-245,0
1776458468866,298,-260,0
1776458468867,298,-170,0
1776458468868,298,-170,0
1776458468868,298,-185,0
1776458468869,298,-153,0
1776458468870,298,-170,0
1776458468870,298,-185,0
1776458468871,298,-203,0
1776458468871,298,-210,0
1776458468872,298,-91,0
1776458468873,298,7,0
1776458468873,298,-89,0
1776458468874,298,-166,0
1776458468874,298,-59,0
1776458468875,298,29,0
1776458468876,298,-37,0
1776458468876,298,-76,0
1776458468877,298,0,0
1776458468877,298,32,0
1776458468878,298,22,0
1776458468879,298,42,0
1776458468879,298,7,0
1776458468880,298,-19,0
1776458468880,298,-22,0
1776458468881,298,-106,0
1776458468882,298,-161,0
1776458468883,298,-166,0
1776458468883,298,-218,0
1776458468884,298,-284,0
1776458468885,298,-284,0
1776458468885,298,-235,0
1776458468886,298,-205,0
1776458468887,298,-215,0
1776458468887,298,-252,0
1776458468888,298,-250,0
1776458468889,298,-188,0
1776458468889,298,-205,0
1776458468890,298,-262,0
1776458468890,298,-170,0
1776458468891,298,-113,0
1776458468892,298,-215,0
1776458468892,298,-203,0
1776458468893,298,-91,0
1776458468893,298,-133,0
1776458468894,298,-237,0
1776458468895,298,-193,0
1776458468895,298,-138,0
1776458469104,299,-138,0
1776458469105,298,-138,0
1776458469106,298,-138,0
1776458469106,298,-138,0
1776458469107,298,-138,0
1776458469108,271,-138,0
1776458469109,299,-138,0
1776458469109,299,-138,0
1776458469110,299,-138,0
1776458469111,301,-138,0
1776458469389,301,-200,0
1776458469390,301,-175,0
1776458469391,301,-91,0
1776458469391,301,-138,0
1776458469392,301,-210,0
1776458469392,301,-178,0
1776458469393,301,-128,0
1776458469394,301,-168,0
1776458469395,301,-195,0
1776458469395,301,-99,0
1776458469395,301,-89,0
1776458469396,301,-203,0
1776458469396,301,-203,0
1776458469397,301,-128,0
1776458469397,301,-123,0
1776458469398,301,-158,0
1776458469399,301,-190,0
1776458469400,301,-121,0
1776458469401,301,-52,0
1776458469401,301,-156,0
1776458469402,301,-156,0
1776458469403,301,156,0
1776458469403,301,428,0
1776458469405,301,215,0
1776458469405,301,-292,0
1776458469406,301,-503,0
1776458469407,301,-319,0
1776458469407,301,-148,0
1776458469408,301,-180,0
1776458469408,301,-195,0
1776458469409,301,-81,0
1776458469410,301,-22,0
1776458469410,301,-49,0
1776458469411,301,-66,0
1776458469411,301,-54,0
1776458469412,301,-24,0
1776458469413,301,-56,0
1776458469413,301,-101,0
1776458469414,301,-99,0
1776458469414,301,-66,0
1776458469415,301,0,0
1776458469416,301,34,0
1776458469417,301,-7,0
1776458469417,301,-42,0
1776458469418,301,29,0
1776458469419,301,116,0
1776458469419,301,66,0
1776458469420,301,56,0
1776458469420,301,148,0
1776458469421,301,143,0
1776458469422,301,84,0
1776458469422,301,121,0
1776458469423,301,128,0
1776458469423,301,17,0
1776458469424,301,-9,0
1776458469425,301,27,0
1776458469425,301,-54,0
1776458469426,301,-146,0
1776458469427,301,-151,0
1776458469427,301,-138,0
1776458469428,301,-153,0
1776458469428,301,-141,0
1776458469429,301,-126,0
1776458469429,301,-156,0
1776458469430,301,-121,0
1776458469431,301,-141,0
1776458469431,301,-257,0
1776458469432,301,-193,0
1776458469433,301,-113,0
1776458469433,301,-284,0
1776458469434,301,-307,0
1776458469434,301,-56,0
1776458469435,301,-79,0
1776458469972,301,-270,0
1776458469973,301,-146,0
1776458469974,301,37,0
1776458469974,301,-111,0
1776458469974,301,-322,0
1776458469975,301,-200,0
1776458469975,301,-32,0
1776458469976,301,-126,0
1776458469976,301,-210,0
1776458469976,301,-128,0
1776458469977,301,-49,0
1776458469977,301,-111,0
1776458469978,301,-205,0
1776458469978,301,-111,0
1776458469979,301,0,0
1776458469979,301,-59,0
1776458469980,301,-59,0
1776458469980,301,-12,0
1776458469983,301,-84,0
1776458469983,301,-153,0
1776458469984,301,-121,0
1776458469984,301,-27,0
1776458469985,301,9,0
1776458469985,301,-66,0
1776458469986,301,-106,0
1776458469986,301,-42,0
1776458469987,301,39,0
1776458469987,301,223,0
1776458469987,301,374,0
1776458469988,301,47,0
1776458469988,301,-391,0
1776458469989,301,-418,0
1776458469989,301,-344,0
1776458469990,301,-208,0
1776458469990,301,44,0
1776458469991,301,71,0
1776458469991,301,-39,0
1776458469992,301,-79,0
1776458469992,301,-49,0
1776458469993,301,-47,0
1776458469993,301,-205,0
1776458469994,301,-223,0
1776458469994,301,-37,0
1776458469995,301,-74,0
1776458469995,301,-121,0
1776458469996,301,34,0
1776458469996,301,49,0
1776458469997,301,-2,0
1776458469997,301,69,0
1776458469997,301,19,0
1776458469998,301,-109,0
1776458469999,301,-17,0
1776458470000,301,126,0
1776458470001,301,79,0
1776458470002,301,2,0
1776458470002,301,56,0
1776458470003,301,121,0
1776458470003,301,49,0
1776458470004,301,-2,0
1776458470005,301,39,0
1776458470005,301,-19,0
1776458470006,301,-118,0
1776458470006,301,-153,0
1776458470007,301,-193,0
1776458470008,301,-215,0
1776458470008,301,-225,0
1776458470009,301,-252,0
1776458470009,301,-247,0
1776458470010,301,-247,0
1776458470011,301,-267,0
1776458470011,301,-275,0
1776458470012,301,-284,0
1776458470012,301,-270,0
1776458470123,301,-270,0
1776458470124,300,-270,0
1776458470125,301,-270,0
1776458470125,301,-270,0
1776458470126,301,-270,0
1776458470127,302,-270,0
1776458470128,302,-270,0
1776458470129,301,-270,0
1776458470129,301,-270,0
1776458470130,303,-270,0
1776458470512,303,-230,0
1776458470513,303,-230,0
1776458470514,303,-257,0
1776458470514,303,-232,0
1776458470515,303,-223,0
1776458470515,303,-245,0
1776458470516,303,-223,0
1776458470516,303,-265,0
1776458470517,303,-354,0
1776458470517,303,-307,0
1776458470518,303,-225,0
1776458470518,303,-242,0
1776458470519,303,-272,0
1776458470519,303,-242,0
1776458470520,303,-265,0
1776458470520,303,-374,0
1776458470521,303,-359,0
1776458470522,303,-242,0
1776458470522,303,-235,0
1776458470523,303,-294,0
1776458470523,303,-322,0
1776458470524,303,-277,0
1776458470524,303,-230,0
1776458470525,303,-267,0
1776458470525,303,-304,0
1776458470526,303,-257,0
1776458470526,303,-215,0
1776458470527,303,-282,0
1776458470527,303,-349,0
1776458470528,303,-327,0
1776458470528,303,-267,0
1776458470528,303,-14,0
1776458470529,303,314,0
1776458470530,303,84,0
1776458470530,303,-473,0
1776458470530,303,-560,0
1776458470531,303,-359,0
1776458470531,303,-312,0
1776458470532,303,-314,0
1776458470533,303,-319,0
1776458470533,303,-334,0
1776458470533,303,-284,0
1776458470534,303,-245,0
1776458470534,303,-265,0
1776458470535,303,-265,0
1776458470535,303,-247,0
1776458470536,303,-250,0
1776458470536,303,-245,0
1776458470536,303,-230,0
1776458470537,303,-230,0
1776458470537,303,-230,0
1776458470538,303,-220,0
1776458470538,303,-213,0
1776458470539,303,-210,0
1776458470540,303,-185,0
1776458470540,303,-153,0
1776458470541,303,-141,0
1776458470542,303,-121,0
1776458470542,303,-94,0
1776458470543,303,-81,0
1776458470544,303,-64,0
1776458470544,303,-76,0
1776458470545,303,-113,0
1776458470545,303,-121,0
1776458470546,303,-163,0
1776458470547,303,-252,0
1776458470547,303,-294,0
1776458470548,303,-287,0
1776458470549,303,-307,0
1776458470549,303,-351,0
1776458470550,303,-379,0
1776458470550,303,-379,0
1776458470551,303,-354,0
1776458471097,303,-346,0
1776458471098,303,-354,0
1776458471099,303,-339,0
1776458471100,303,-317,0
1776458471100,303,-319,0
1776458471101,303,-324,0
1776458471102,303,-307,0
1776458471102,303,-304,0
1776458471103,303,-307,0
1776458471103,303,-289,0
1776458471103,303,-277,0
1776458471104,303,-280,0
1776458471105,303,-282,0
1776458471105,303,-282,0
1776458471106,303,-265,0
1776458471106,303,-265,0
1776458471107,303,-272,0
1776458471107,303,-265,0
1776458471108,303,-282,0
1776458471108,303,-289,0
1776458471109,303,-267,0
1776458471110,303,-265,0
1776458471111,303,-280,0
1776458471111,303,-265,0
1776458471112,303,-245,0
1776458471113,303,-235,0
1776458471113,303,-227,0
1776458471114,303,-237,0
1776458471115,303,-245,0
1776458471115,303,-257,0
1776458471116,303,-270,0
1776458471117,303,-257,0
1776458471117,303,-255,0
1776458471118,303,-272,0
1776458471118,303,-302,0
1776458471119,303,-270,0
1776458471119,303,4,0
1776458471120,303,339,0
1776458471120,303,168,0
1776458471121,303,-361,0
1776458471122,303,-498,0
1776458471122,303,-314,0
1776458471123,303,-287,0
1776458471123,303,-324,0
1776458471124,303,-282,0
1776458471124,303,-262,0
1776458471125,303,-270,0
1776458471125,303,-255,0
1776458471126,303,-245,0
1776458471127,303,-247,0
1776458471127,303,-237,0
1776458471128,303,-230,0
1776458471128,303,-227,0
1776458471129,303,-208,0
1776458471129,303,-203,0
1776458471130,303,-205,0
1776458471130,303,-188,0
1776458471131,303,-178,0
1776458471132,303,-158,0
1776458471132,303,-136,0
1776458471133,303,-128,0
1776458471133,303,-101,0
1776458471134,303,-69,0
1776458471135,303,-54,0
1776458471135,303,-42,0
1776458471136,303,-27,0
1776458471136,303,-29,0
1776458471137,303,-49,0
1776458471137,303,-69,0
1776458471138,303,-96,0
1776458471139,303,-156,0
1776458471139,303,-210,0
1776458471140,303,-240,0
1776458471141,382,-240,0
1776458471142,301,-240,0
1776458471143,300,-240,0
1776458471144,300,-240,0
1776458471144,300,-240,0
1776458471145,299,-240,0
1776458471145,299,-240,0
1776458471146,299,-240,0
1776458471147,299,-240,0
1776458471147,299,-240,0
1776458471682,299,-255,0
1776458471683,299,-267,0
1776458471683,299,-272,0
1776458471684,299,-265,0
1776458471685,299,-280,0
1776458471685,299,-302,0
1776458471686,299,-280,0
1776458471687,299,-272,0
1776458471687,299,-297,0
1776458471688,299,-270,0
1776458471689,299,-235,0
1776458471690,299,-260,0
1776458471691,299,-270,0
1776458471691,299,-250,0
1776458471692,299,-237,0
1776458471692,299,-215,0
1776458471693,299,-193,0
1776458471693,299,-237,0
1776458471694,299,-275,0
1776458471694,299,-240,0
1776458471695,299,-247,0
1776458471695,299,-260,0
1776458471696,299,-223,0
1776458471696,299,-213,0
1776458471697,299,-237,0
1776458471697,299,-257,0
1776458471698,299,-247,0
1776458471698,299,-230,0
1776458471699,299,-232,0
1776458471700,299,-225,0
1776458471700,299,-195,0
1776458471701,299,-180,0
1776458471701,299,-205,0
1776458471702,299,-265,0
1776458471702,299,-275,0
1776458471703,299,-245,0
1776458471703,299,-245,0
1776458471704,299,-262,0
1776458471704,299,-284,0
1776458471705,299,-317,0
1776458471705,299,-218,0
1776458471706,299,121,0
1776458471706,299,314,0
1776458471707,299,-61,0
1776458471707,299,-512,0
1776458471708,299,-468,0
1776458471708,299,-294,0
1776458471709,299,-302,0
1776458471709,299,-294,0
1776458471710,299,-247,0
1776458471710,299,-270,0
1776458471711,299,-312,0
1776458471712,299,-312,0
1776458471712,299,-282,0
1776458471713,299,-265,0
1776458471713,299,-255,0
1776458471714,299,-245,0
1776458471715,299,-245,0
1776458471715,299,-235,0
1776458471716,299,-220,0
1776458471717,299,-225,0
1776458471717,299,-232,0
1776458471718,299,-200,0
1776458471719,299,-146,0
1776458471719,299,-136,0
1776458471721,299,-138,0
1776458471721,299,-104,0
1776458471722,299,-89,0
1776458471723,299,-116,0
1776458471723,299,-86,0
1776458471724,299,-49,0
1776458471724,299,-66,0
1776458471725,299,-89,0
1776458472158,299,-89,0
1776458472159,298,-89,0
1776458472159,296,-89,0
1776458472160,299,-89,0
1776458472161,298,-89,0
1776458472161,299,-89,0
1776458472162,299,-89,0
1776458472163,247,-89,0
1776458472163,263,-89,0
1776458472165,299,-89,0
1776458472223,299,-116,0
1776458472224,299,-178,0
1776458472224,299,-237,0
1776458472225,299,-232,0
1776458472225,299,-230,0
1776458472226,299,-299,0
1776458472227,299,-319,0
1776458472227,299,-292,0
1776458472228,299,-332,0
1776458472228,299,-351,0
1776458472229,299,-297,0
1776458472230,299,-292,0
1776458472230,299,-297,0
1776458472231,299,-205,0
1776458472232,299,-188,0
1776458472233,299,-275,0
1776458472234,299,-262,0
1776458472235,299,-210,0
1776458472236,299,-193,0
1776458472237,299,-163,0
1776458472237,299,-240,0
1776458472238,299,-319,0
1776458472238,299,-190,0
1776458472239,299,-121,0
1776458472240,299,-225,0
1776458472240,299,-215,0
1776458472241,299,-111,0
1776458472241,299,-123,0
1776458472242,299,-200,0
1776458472243,299,-215,0
1776458472243,299,-173,0
1776458472244,299,-143,0
1776458472244,299,-173,0
1776458472245,299,-225,0
1776458472246,299,-183,0
1776458472246,299,-106,0
1776458472247,299,-128,0
1776458472247,299,-195,0
1776458472248,299,-180,0
1776458472249,299,-128,0
1776458472250,299,-161,0
1776458472250,299,-183,0
1776458472251,299,-138,0
1776458472251,299,-138,0
1776458472252,299,-158,0
1776458472253,299,-141,0
1776458472253,299,-158,0
1776458472254,299,-190,0
1776458472255,299,-148,0
1776458472255,299,-42,0
1776458472256,299,203,0
1776458472256,299,319,0
1776458472257,299,-116,0
1776458472258,299,-485,0
1776458472258,299,-299,0
1776458472259,299,-163,0
1776458472259,299,-235,0
1776458472260,299,-210,0
1776458472261,299,-158,0
1776458472261,299,-104,0
1776458472262,299,-74,0
1776458472263,299,-52,0
1776458472263,299,-22,0
1776458472264,299,-109,0
1776458472264,299,-158,0
1776458472265,299,-52,0
1776458472266,299,-9,0
1776458472267,299,-19,0
1776458472267,299,-2,0
1776458472268,299,-52,0
1776458472268,299,-54,0
1776458472269,299,39,0
1776458472270,299,61,0
1776458472762,299,29,0
1776458472763,299,49,0
1776458472763,299,71,0
1776458472765,299,94,0
1776458472765,299,161,0
1776458472767,299,185,0
1776458472768,299,131,0
1776458472768,299,44,0
1776458472769,299,19,0
1776458472770,299,81,0
1776458472770,299,123,0
1776458472771,299,106,0
1776458472771,299,12,0
1776458472772,299,-163,0
1776458472772,299,-223,0
1776458472773,299,-153,0
1776458472773,299,-163,0
1776458472774,299,-205,0
1776458472774,299,-151,0
1776458472775,299,-96,0
1776458472776,299,-89,0
1776458472776,299,-94,0
1776458472777,299,-123,0
1776458472777,299,-121,0
1776458472777,299,-106,0
1776458472778,299,-128,0
1776458472778,299,-138,0
1776458472779,299,-126,0
1776458472779,299,-89,0
1776458472780,299,-84,0
1776458472781,299,-79,0
1776458472782,299,-47,0
1776458472782,299,-47,0
1776458472783,299,-29,0
1776458472783,299,-4,0
1776458472784,299,-76,0
1776458472784,299,-146,0
1776458472785,299,-69,0
1776458472785,299,-29,0
1776458472786,299,-116,0
1776458472788,299,-104,0
1776458472789,299,-9,0
1776458472790,299,-44,0
1776458472791,299,-109,0
1776458472791,299,-84,0
1776458472792,299,-59,0
1776458472793,299,-12,0
1776458472793,299,-32,0
1776458472794,299,-138,0
1776458472795,299,-94,0
1776458472795,299,4,0
1776458472796,299,-42,0
1776458472796,299,-71,0
1776458472797,299,-61,0
1776458472798,299,-24,0
1776458472798,299,260,0
1776458472799,299,394,0
1776458472800,299,-121,0
1776458472800,299,-562,0
1776458472801,299,-406,0
1776458472801,299,-210,0
1776458472802,299,-193,0
1776458472803,299,-89,0
1776458472804,299,59,0
1776458472804,299,39,0
1776458472805,299,-12,0
1776458472806,299,14,0
1776458472806,299,-22,0
1776458472807,299,-14,0
1776458472807,299,47,0
1776458472808,299,-7,0
1776458472809,299,-49,0
1776458472809,299,-2,0
1776458473178,299,-2,0
1776458473179,299,-2,0
1776458473179,299,-2,0
1776458473180,299,-2,0
1776458473180,300,-2,0
1776458473180,299,-2,0
1776458473181,299,-2,0
1776458473181,300,-2,0
1776458473182,300,-2,0
1776458473182,303,-2,0
1776458473183,299,-2,0
1776458473367,299,49,0
1776458473368,299,22,0
1776458473369,299,-74,0
1776458473370,299,24,0
1776458473371,299,195,0
1776458473372,299,121,0
1776458473373,299,44,0
1776458473374,299,161,0
1776458473375,299,203,0
1776458473376,299,52,0
1776458473377,299,14,0
1776458473378,299,148,0
1776458473379,299,106,0
1776458473380,299,7,0
1776458473382,299,49,0
1776458473383,299,0,0
1776458473384,299,-131,0
1776458473385,299,-166,0
1776458473386,299,-138,0
1776458473388,299,-188,0
1776458473388,299,-307,0
1776458473389,299,-287,0
1776458473390,299,-203,0
1776458473391,299,-235,0
1776458473392,299,-252,0
1776458473393,299,-218,0
1776458473393,299,-210,0
1776458473394,299,-220,0
1776458473395,299,-235,0
1776458473395,299,-227,0
1776458473396,299,-185,0
1776458473397,299,-161,0
1776458473398,299,-158,0
1776458473399,299,-170,0
1776458473400,299,-205,0
1776458473401,299,-203,0
1776458473401,299,-146,0
1776458473402,299,-91,0
1776458473403,299,-136,0
1776458473404,299,-180,0
1776458473405,299,-116,0
1776458473406,299,-113,0
1776458473407,299,-193,0
1776458473408,299,-178,0
1776458473408,299,-161,0
1776458473409,299,-183,0
1776458473410,299,-121,0
1776458473411,299,-121,0
1776458473412,299,-190,0
1776458473413,299,-131,0
1776458473414,299,-52,0
1776458473416,299,-56,0
1776458473417,299,-94,0
1776458473417,299,-180,0
1776458473418,299,-227,0
1776458473418,299,-163,0
1776458473419,299,-143,0
1776458473420,299,-215,0
1776458473420,299,-183,0
1776458473421,299,94,0
1776458473421,299,413,0
1776458473422,299,178,0
1776458473423,299,-436,0
1776458473423,299,-530,0
1776458473424,299,-299,0
1776458473424,299,-277,0
1776458473425,299,-225,0
1776458473425,299,-148,0
1776458473426,299,-185,0
1776458473427,299,-178,0
1776458473427,299,-141,0
1776458473428,299,-153,0
1776458473429,299,-118,0
1776458473932,299,-66,0
1776458473933,299,-133,0
1776458473934,299,-195,0
1776458473934,299,-153,0
1776458473935,299,-133,0
1776458473935,299,-138,0
1776458473935,299,-138,0
1776458473936,299,-133,0
1776458473937,299,-74,0
1776458473938,299,-17,0
1776458473939,299,-74,0
1776458473940,299,-116,0
1776458473941,299,-29,0
1776458473941,299,17,0
1776458473942,299,-9,0
1776458473942,299,-12,0
1776458473943,299,-7,0
1776458473943,299,-4,0
1776458473944,299,-9,0
1776458473945,299,-86,0
1776458473946,299,-215,0
1776458473947,299,-260,0
1776458473948,299,-227,0
1776458473949,299,-267,0
1776458473950,299,-337,0
1776458473950,299,-344,0
1776458473951,299,-329,0
1776458473952,299,-322,0
1776458473952,299,-319,0
1776458473953,299,-307,0
1776458473953,299,-294,0
1776458473954,299,-307,0
1776458473955,299,-284,0
1776458473955,299,-237,0
1776458473956,299,-245,0
1776458473957,299,-299,0
1776458473957,299,-307,0
1776458473958,299,-255,0
1776458473958,299,-237,0
1776458473959,299,-262,0
1776458473960,299,-235,0
1776458473960,299,-205,0
1776458473961,299,-255,0
1776458473961,299,-275,0
1776458473962,299,-230,0
1776458473963,299,-218,0
1776458473963,299,-250,0
1776458473964,299,-287,0
1776458473965,299,-260,0
1776458473965,299,-223,0
1776458473966,299,-262,0
1776458473967,299,-265,0
1776458473967,299,-223,0
1776458473968,299,-240,0
1776458473968,299,-242,0
1776458473969,299,-230,0
1776458473970,299,-245,0
1776458473970,299,-225,0
1776458473971,299,-210,0
1776458473971,299,-225,0
1776458473972,299,-227,0
1776458473972,299,-255,0
1776458473973,299,-280,0
1776458473974,299,-240,0
1776458473974,299,-237,0
1776458473975,299,-319,0
1776458473975,299,-287,0
1776458473976,299,52,0
1776458473977,299,386,0
1776458473977,299,136,0
1776458473978,299,-423,0
1776458473979,299,-520,0
1776458473988,299,-322,0
1776458474200,304,-322,0
1776458474201,505,-322,0
1776458474202,466,-322,0
1776458474203,368,-322,0
1776458474204,421,-322,0
1776458474205,394,-322,0
1776458474205,388,-322,0
1776458474206,372,-322,0
1776458474207,349,-322,0
1776458474207,299,-322,0
1776458474472,299,-309,0
1776458474473,299,-349,0
1776458474474,299,-289,0
1776458474475,299,-255,0
1776458474476,299,-282,0
1776458474477,299,-287,0
1776458474478,299,-255,0
1776458474478,299,-252,0
1776458474479,299,-265,0
1776458474479,299,-242,0
1776458474480,299,-235,0
1776458474481,299,-262,0
1776458474482,299,-262,0
1776458474482,299,-227,0
1776458474483,299,-213,0
1776458474484,299,-208,0
1776458474484,299,-183,0
1776458474485,299,-166,0
1776458474485,299,-161,0
1776458474486,299,-138,0
1776458474487,299,-111,0
1776458474487,299,-86,0
1776458474488,299,-69,0
1776458474488,299,-59,0
1776458474489,299,-66,0
1776458474490,299,-91,0
1776458474490,299,-109,0
1776458474491,299,-138,0
1776458474491,299,-193,0
1776458474492,299,-242,0
1776458474492,299,-272,0
1776458474493,299,-292,0
1776458474494,299,-317,0
1776458474494,299,-322,0
1776458474495,299,-317,0
1776458474495,299,-314,0
1776458474496,299,-299,0
1776458474497,299,-304,0
1776458474498,299,-324,0
1776458474498,299,-304,0
1776458474499,299,-280,0
1776458474499,299,-275,0
1776458474500,299,-280,0
1776458474501,299,-287,0
1776458474501,299,-282,0
1776458474502,299,-265,0
1776458474502,299,-260,0
1776458474503,299,-262,0
1776458474504,299,-252,0
1776458474504,299,-245,0
1776458474505,299,-250,0
1776458474505,299,-255,0
1776458474506,299,-257,0
1776458474507,299,-250,0
1776458474507,299,-232,0
1776458474508,299,-237,0
1776458474508,299,-260,0
1776458474509,299,-260,0
1776458474509,299,-245,0
1776458474510,299,-242,0
1776458474511,299,-235,0
1776458474511,299,-225,0
1776458474512,299,-237,0
1776458474513,299,-235,0
1776458474513,299,-215,0
1776458474514,299,-218,0
1776458474515,299,-225,0
1776458474515,299,-223,0
1776458474516,299,-240,0
1776458474516,299,-260,0
1776458474517,299,-252,0
1776458474518,299,-242,0
1776458474518,299,-250,0
1776458475057,299,-287,0
1776458475058,299,-270,0
1776458475059,299,-4,0
1776458475059,299,354,0
1776458475059,299,240,0
1776458475060,299,-299,0
1776458475060,299,-510,0
1776458475061,299,-322,0
1776458475061,299,-257,0
1776458475062,299,-309,0
1776458475062,299,-272,0
1776458475062,299,-242,0
1776458475063,299,-257,0
1776458475063,299,-245,0
1776458475063,299,-223,0
1776458475064,299,-223,0
1776458475064,299,-218,0
1776458475065,299,-203,0
1776458475065,299,-188,0
1776458475066,299,-188,0
1776458475066,299,-190,0
1776458475066,299,-183,0
1776458475067,299,-158,0
1776458475067,299,-143,0
1776458475068,299,-133,0
1776458475068,299,-116,0
1776458475069,299,-86,0
1776458475069,299,-61,0
1776458475070,299,-47,0
1776458475070,299,-27,0
1776458475071,299,-27,0
1776458475071,299,-52,0
1776458475072,299,-42,0
1776458475072,299,-14,0
1776458475073,299,-37,0
1776458475073,299,-84,0
1776458475074,299,-126,0
1776458475075,299,-166,0
1776458475076,299,-203,0
1776458475077,299,-242,0
1776458475083,299,-267,0
1776458475084,299,-270,0
1776458475085,299,-262,0
1776458475085,299,-230,0
1776458475086,299,-203,0
1776458475087,299,-242,0
1776458475087,299,-312,0
1776458475088,299,-304,0
1776458475088,299,-252,0
1776458475089,299,-237,0
1776458475090,299,-220,0
1776458475090,299,-203,0
1776458475091,299,-220,0
1776458475092,299,-223,0
1776458475092,299,-205,0
1776458475093,299,-208,0
1776458475093,299,-215,0
1776458475094,299,-220,0
1776458475094,299,-215,0
1776458475095,299,-190,0
1776458475096,299,-203,0
1776458475096,299,-240,0
1776458475097,299,-225,0
1776458475098,299,-178,0
1776458475098,299,-183,0
1776458475099,299,-225,0
1776458475100,299,-255,0
1776458475100,299,-225,0
1776458475101,299,-185,0
1776458475102,299,-198,0
1776458475102,299,-240,0
1776458475103,299,-247,0
1776458475103,299,-235,0
1776458475219,298,-235,0
1776458475220,299,-235,0
1776458475221,295,-235,0
1776458475222,286,-235,0
1776458475222,286,-235,0
1776458475223,287,-235,0
1776458475224,288,-235,0
1776458475225,276,-235,0
1776458475225,256,-235,0
1776458475226,272,-235,0
1776458475598,272,-235,0
1776458475598,272,-220,0
1776458475599,272,-190,0
1776458475599,272,-235,0
1776458475600,272,-275,0
1776458475600,272,-203,0
1776458475601,272,-173,0
1776458475601,272,-218,0
1776458475601,272,-223,0
1776458475603,272,-218,0
1776458475605,272,-232,0
1776458475605,272,-250,0
1776458475606,272,-247,0
1776458475606,272,-237,0
1776458475607,272,-270,0
1776458475607,272,-289,0
1776458475608,272,-151,0
1776458475608,272,180,0
1776458475609,272,351,0
1776458475609,272,-27,0
1776458475610,272,-505,0
1776458475610,272,-470,0
1776458475611,272,-255,0
1776458475611,272,-267,0
1776458475612,272,-314,0
1776458475612,272,-272,0
1776458475613,272,-247,0
1776458475615,272,-252,0
1776458475616,272,-230,0
1776458475617,272,-223,0
1776458475617,272,-250,0
1776458475618,272,-232,0
1776458475619,272,-193,0
1776458475619,272,-173,0
1776458475620,272,-190,0
1776458475621,272,-215,0
1776458475621,272,-178,0
1776458475622,272,-141,0
1776458475623,272,-158,0
1776458475623,272,-146,0
1776458475624,272,-99,0
1776458475625,272,-69,0
1776458475626,272,-56,0
1776458475627,272,-49,0
1776458475628,272,-7,0
1776458475629,272,39,0
1776458475629,272,17,0
1776458475630,272,-12,0
1776458475630,272,22,0
1776458475631,272,27,0
1776458475632,272,-4,0
1776458475632,272,-64,0
1776458475633,272,-161,0
1776458475633,272,-205,0
1776458475634,272,-161,0
1776458475635,272,-126,0
1776458475635,272,-205,0
1776458475636,272,-270,0
1776458475636,272,-180,0
1776458475637,272,-116,0
1776458475638,272,-148,0
1776458475638,272,-146,0
1776458475639,272,-106,0
1776458475640,272,-161,0
1776458475640,272,-237,0
1776458475641,272,-166,0
1776458475641,272,-64,0
1776458475642,272,-109,0
1776458475643,272,-153,0
1776458475643,272,-56,0
1776458475644,272,9,0
1776458475645,272,-89,0
1776458475645,272,-126,0
1776458476138,272,-79,0
1776458476138,272,-133,0
1776458476139,272,-101,0
1776458476139,272,19,0
1776458476140,272,-12,0
1776458476140,272,-106,0
1776458476141,272,-109,0
1776458476141,272,-101,0
1776458476141,272,-113,0
1776458476142,272,-59,0
1776458476142,272,9,0
1776458476144,272,-37,0
1776458476145,272,-161,0
1776458476145,272,-143,0
1776458476146,272,-14,0
1776458476146,272,-39,0
1776458476148,272,-175,0
1776458476149,272,-173,0
1776458476149,272,-4,0
1776458476150,272,49,0
1776458476150,272,-71,0
1776458476151,272,-94,0
1776458476151,272,-9,0
1776458476152,272,-7,0
1776458476152,272,-66,0
1776458476152,272,-66,0
1776458476153,272,0,0
1776458476154,272,-4,0
1776458476155,272,-84,0
1776458476155,272,-84,0
1776458476156,272,-32,0
1776458476156,272,-47,0
1776458476157,272,-12,0
1776458476158,272,262,0
1776458476159,272,493,0
1776458476160,272,185,0
1776458476161,272,-381,0
1776458476162,272,-455,0
1776458476163,272,-188,0
1776458476166,272,-136,0
1776458476167,272,-133,0
1776458476168,272,-2,0
1776458476168,272,32,0
1776458476169,272,-17,0
1776458476170,272,-4,0
1776458476170,272,-12,0
1776458476171,272,-24,0
1776458476172,272,37,0
1776458476172,272,4,0
1776458476173,272,-76,0
1776458476173,272,7,0
1776458476174,272,56,0
1776458476175,272,-69,0
1776458476175,272,-96,0
1776458476176,272,64,0
1776458476177,272,138,0
1776458476177,272,54,0
1776458476178,272,52,0
1776458476179,272,128,0
1776458476179,272,64,0
1776458476180,272,34,0
1776458476181,272,156,0
1776458476182,272,151,0
1776458476182,272,99,0
1776458476183,272,143,0
1776458476184,272,118,0
1776458476185,272,-7,0
1776458476185,272,-56,0
1776458476186,272,-14,0
1776458476187,272,-42,0
1776458476188,272,-151,0
1776458476188,272,-205,0
1776458476189,272,-166,0
1776458476238,299,-166,0
1776458476239,203,-166,0
1776458476240,300,-166,0
1776458476241,300,-166,0
1776458476241,300,-166,0
1776458476242,301,-166,0
1776458476242,300,-166,0
1776458476243,300,-166,0
1776458476244,300,-166,0
1776458476244,300,-166,0
1776458476723,300,-173,0
1776458476724,300,-235,0
1776458476724,300,-215,0
1776458476725,300,-146,0
1776458476726,300,-247,0
1776458476726,300,-354,0
1776458476727,300,-175,0
1776458476727,300,-61,0
1776458476729,300,-215,0
1776458476731,300,-284,0
1776458476732,300,-143,0
1776458476732,300,-86,0
1776458476733,300,-220,0
1776458476733,300,-245,0
1776458476734,300,-133,0
1776458476734,300,-141,0
1776458476735,300,-188,0
1776458476735,300,-180,0
1776458476736,300,-156,0
1776458476736,300,-96,0
1776458476737,300,-59,0
1776458476738,300,-86,0
1776458476738,300,-218,0
1776458476739,300,-213,0
1776458476740,300,22,0
1776458476740,300,-29,0
1776458476741,300,-260,0
1776458476742,300,-170,0
1776458476742,300,-66,0
1776458476743,300,-163,0
1776458476743,300,-131,0
1776458476744,300,-47,0
1776458476745,300,-104,0
1776458476745,300,-128,0
1776458476746,300,-74,0
1776458476747,300,-37,0
1776458476747,300,-84,0
1776458476748,300,-178,0
1776458476749,300,-138,0
1776458476750,300,-37,0
1776458476751,300,-99,0
1776458476752,300,-230,0
1776458476752,300,-173,0
1776458476753,300,52,0
1776458476753,300,270,0
1776458476754,300,302,0
1776458476755,300,-96,0
1776458476756,300,-520,0
1776458476756,300,-436,0
1776458476757,300,-260,0
1776458476758,300,-255,0
1776458476758,300,-126,0
1776458476759,300,-52,0
1776458476759,300,-133,0
1776458476760,300,-143,0
1776458476761,300,-178,0
1776458476761,300,-128,0
1776458476762,300,-7,0
1776458476763,300,-118,0
1776458476763,300,-175,0
1776458476764,300,-49,0
1776458476765,300,-34,0
1776458476766,300,-61,0
1776458476767,300,-54,0
1776458476767,300,-52,0
1776458476768,300,-4,0
1776458476769,300,17,0
1776458476769,300,-24,0
1776458476770,300,-56,0
1776458476771,300,-32,0
1776458476771,300,71,0
1776458476772,300,118,0
1776458476773,300,84,0
1776458477259,300,84,0
1776458477260,300,84,0
1776458477260,300,84,0
1776458477261,300,84,0
1776458477261,300,84,0
1776458477262,299,84,0
1776458477262,301,84,0
1776458477262,415,84,0
1776458477263,302,84,0
1776458477263,298,84,0
1776458477265,298,84,0
1776458477269,298,84,0
1776458477270,298,64,0
1776458477270,298,9,0
1776458477271,298,2,0
1776458477271,298,4,0
1776458477272,298,-47,0
1776458477272,298,-161,0
1776458477273,298,-240,0
1776458477273,298,-235,0
1776458477274,298,-235,0
1776458477274,298,-262,0
1776458477275,298,-260,0
1776458477275,298,-210,0
1776458477276,298,-208,0
1776458477276,298,-275,0
1776458477277,298,-277,0
1776458477277,298,-215,0
1776458477278,298,-203,0
1776458477279,298,-205,0
1776458477279,298,-170,0
1776458477280,298,-183,0
1776458477280,298,-223,0
1776458477281,298,-185,0
1776458477282,298,-136,0
1776458477283,298,-141,0
1776458477284,298,-188,0
1776458477285,298,-230,0
1776458477285,298,-208,0
1776458477286,298,-166,0
1776458477287,298,-166,0
1776458477287,298,-183,0
1776458477288,298,-173,0
1776458477288,298,-161,0
1776458477289,298,-183,0
1776458477289,298,-215,0
1776458477290,298,-183,0
1776458477291,298,-166,0
1776458477291,298,-215,0
1776458477292,298,-210,0
1776458477293,298,-148,0
1776458477293,298,-161,0
1776458477294,298,-198,0
1776458477294,298,-175,0
1776458477295,298,-161,0
1776458477296,298,-193,0
1776458477296,298,-190,0
1776458477297,298,-138,0
1776458477297,298,-136,0
1776458477298,298,-158,0
1776458477299,298,-195,0
1776458477300,298,-225,0
1776458477300,298,-190,0
1776458477301,298,-153,0
1776458477302,298,14,0
1776458477302,298,351,0
1776458477303,298,265,0
1776458477303,298,-337,0
1776458477304,298,-569,0
1776458477305,298,-302,0
1776458477305,298,-190,0
1776458477306,298,-247,0
1776458477307,298,-200,0
1776458477307,298,-148,0
1776458477308,298,-183,0
1776458477308,298,-180,0
1776458477309,298,-136,0
1776458477310,298,-175,0
1776458477310,298,-223,0
1776458477311,298,-185,0
1776458477311,298,-146,0
1776458477312,298,-148,0
1776458477313,298,-148,0
1776458477313,298,-141,0
1776458477892,298,-128,0
1776458477893,298,-126,0
1776458477894,298,-123,0
1776458477894,298,-99,0
1776458477894,298,-74,0
1776458477895,298,-74,0
1776458477895,298,-64,0
1776458477896,298,-29,0
1776458477896,298,-4,0
1776458477896,298,-2,0
1776458477899,298,-14,0
1776458477900,298,-24,0
1776458477900,298,-32,0
1776458477901,298,-89,0
1776458477901,298,-161,0
1776458477902,298,-193,0
1776458477902,298,-235,0
1776458477903,298,-294,0
1776458477903,298,-307,0
1776458477904,298,-292,0
1776458477904,298,-317,0
1776458477905,298,-341,0
1776458477905,298,-332,0
1776458477906,298,-314,0
1776458477906,298,-304,0
1776458477907,298,-314,0
1776458477907,298,-337,0
1776458477908,298,-314,0
1776458477908,298,-284,0
1776458477909,298,-280,0
1776458477909,298,-270,0
1776458477910,298,-277,0
1776458477910,298,-280,0
1776458477910,298,-250,0
1776458477911,298,-245,0
1776458477911,298,-262,0
1776458477912,298,-255,0
1776458477913,298,-242,0
1776458477916,298,-242,0
1776458477916,298,-245,0
1776458477917,298,-240,0
1776458477918,298,-237,0
1776458477918,298,-252,0
1776458477919,298,-252,0
1776458477920,298,-245,0
1776458477920,298,-252,0
1776458477921,298,-255,0
1776458477922,298,-240,0
1776458477922,298,-232,0
1776458477923,298,-245,0
1776458477924,298,-245,0
1776458477924,298,-215,0
1776458477925,298,-200,0
1776458477926,298,-213,0
1776458477926,298,-225,0
1776458477927,298,-237,0
1776458477928,298,-250,0
1776458477928,298,-247,0
1776458477929,298,-235,0
1776458477929,298,-252,0
1776458477931,298,-294,0
1776458477932,298,-245,0
1776458477932,298,56,0
1776458477933,298,379,0
1776458477934,298,168,0
1776458477934,298,-366,0
1776458477935,298,-470,0
1776458477936,298,-272,0
1776458477937,298,-262,0
1776458477938,298,-309,0
1776458477939,298,-262,0
1776458477939,298,-235,0
1776458477940,298,-245,0
1776458478276,297,-245,0
1776458478277,297,-245,0
1776458478277,297,-245,0
1776458478278,297,-245,0
1776458478278,296,-245,0
1776458478278,297,-245,0
1776458478279,296,-245,0
1776458478279,296,-245,0
1776458478280,297,-245,0
1776458478280,296,-245,0
1776458478433,296,-235,0
1776458478433,296,-223,0
1776458478434,296,-218,0
1776458478434,296,-213,0
1776458478435,296,-210,0
1776458478435,296,-208,0
1776458478436,296,-198,0
1776458478436,296,-188,0
1776458478436,296,-190,0
1776458478437,296,-190,0
1776458478438,296,-175,0
1776458478438,296,-166,0
1776458478439,296,-153,0
1776458478440,296,-133,0
1776458478440,296,-121,0
1776458478441,296,-101,0
1776458478441,296,-71,0
1776458478442,296,-56,0
1776458478443,296,-49,0
1776458478443,296,-52,0
1776458478443,296,-64,0
1776458478444,296,-76,0
1776458478444,296,-106,0
1776458478445,296,-168,0
1776458478445,296,-220,0
1776458478446,296,-245,0
1776458478446,296,-267,0
1776458478447,296,-292,0
1776458478448,296,-302,0
1776458478448,296,-297,0
1776458478449,296,-297,0
1776458478449,296,-294,0
1776458478450,296,-282,0
1776458478450,296,-275,0
1776458478451,296,-267,0
1776458478451,296,-262,0
1776458478452,296,-252,0
1776458478452,296,-232,0
1776458478453,296,-232,0
1776458478453,296,-272,0
1776458478454,296,-277,0
1776458478455,296,-232,0
1776458478455,296,-223,0
1776458478456,296,-235,0
1776458478456,296,-232,0
1776458478457,296,-225,0
1776458478457,296,-193,0
1776458478458,296,-148,0
1776458478458,296,-190,0
1776458478459,296,-275,0
1776458478460,296,-235,0
1776458478460,296,-205,0
1776458478461,296,-262,0
1776458478461,296,-257,0
1776458478462,296,-232,0
1776458478462,296,-247,0
1776458478463,296,-223,0
1776458478464,296,-195,0
1776458478464,296,-208,0
1776458478465,296,-203,0
1776458478466,296,-183,0
1776458478466,296,-175,0
1776458478467,296,-180,0
1776458478467,296,-198,0
1776458478468,296,-210,0
1776458478468,296,-203,0
1776458478469,296,-205,0
1776458478469,296,-232,0
1776458478470,296,-237,0
1776458478470,296,-235,0
1776458478471,296,-151,0
1776458478472,296,146,0
1776458478472,296,349,0
1776458479018,296,17,0
1776458479019,296,-421,0
1776458479019,296,-386,0
1776458479020,296,-225,0
1776458479021,296,-267,0
1776458479022,296,-309,0
1776458479023,296,-230,0
1776458479024,296,-168,0
1776458479024,296,-230,0
1776458479025,296,-252,0
1776458479025,296,-188,0
1776458479026,296,-213,0
1776458479027,296,-250,0
1776458479027,296,-210,0
1776458479028,296,-205,0
1776458479028,296,-215,0
1776458479029,296,-173,0
1776458479030,296,-153,0
1776458479031,296,-151,0
1776458479031,296,-146,0
1776458479032,296,-170,0
1776458479033,296,-138,0
1776458479033,296,-86,0
1776458479034,296,-81,0
1776458479035,296,-49,0
1776458479035,296,-14,0
1776458479036,296,-4,0
1776458479036,296,24,0
1776458479037,296,47,0
1776458479038,296,-7,0
1776458479038,296,-84,0
1776458479039,296,-94,0
1776458479039,296,-128,0
1776458479040,296,-220,0
1776458479040,296,-210,0
1776458479041,296,-161,0
1776458479042,296,-252,0
1776458479042,296,-297,0
1776458479043,296,-205,0
1776458479044,296,-210,0
1776458479044,296,-235,0
1776458479045,296,-131,0
1776458479045,296,-121,0
1776458479046,296,-257,0
1776458479047,296,-287,0
1776458479048,296,-183,0
1776458479048,296,-121,0
1776458479049,296,-136,0
1776458479049,296,-170,0
1776458479050,296,-166,0
1776458479051,296,-133,0
1776458479051,296,-104,0
1776458479052,296,-66,0
1776458479052,296,-66,0
1776458479053,296,-101,0
1776458479054,296,-76,0
1776458479054,296,-101,0
1776458479055,296,-180,0
1776458479055,296,-101,0
1776458479056,296,9,0
1776458479057,296,-32,0
1776458479057,296,-106,0
1776458479058,296,-116,0
1776458479058,296,-101,0
1776458479059,296,-109,0
1776458479060,296,-99,0
1776458479060,296,-59,0
1776458479061,296,-64,0
1776458479061,296,-66,0
1776458479062,296,-27,0
1776458479063,296,-49,0
1776458479063,296,-121,0
1776458479064,296,-91,0
1776458479284,296,-91,0
1776458479285,296,-91,0
1776458479286,296,-91,0
1776458479287,262,-91,0
1776458479287,259,-91,0
1776458479288,105,-91,0
1776458479289,296,-91,0
1776458479290,296,-91,0
1776458479290,296,-91,0
1776458479291,297,-91,0
1776458479512,297,-17,0
1776458479513,297,0,0
1776458479514,297,-34,0
1776458479514,297,-91,0
1776458479514,297,-104,0
1776458479515,297,-111,0
1776458479515,297,-99,0
1776458479516,297,-9,0
1776458479516,297,61,0
1776458479517,297,168,0
1776458479517,297,389,0
1776458479518,297,302,0
1776458479518,297,-210,0
1776458479519,297,-408,0
1776458479519,297,-232,0
1776458479520,297,-218,0
1776458479520,297,-203,0
1776458479520,297,-79,0
1776458479521,297,-56,0
1776458479521,297,-64,0
1776458479522,297,-61,0
1776458479523,297,-64,0
1776458479523,297,-54,0
1776458479523,297,-54,0
1776458479524,297,-22,0
1776458479524,297,9,0
1776458479525,297,-14,0
1776458479526,297,-56,0
1776458479526,297,-59,0
1776458479527,297,4,0
1776458479528,297,47,0
1776458479528,297,39,0
1776458479529,297,64,0
1776458479529,297,94,0
1776458479530,297,71,0
1776458479531,297,106,0
1776458479532,297,175,0
1776458479532,297,141,0
1776458479533,297,104,0
1776458479534,297,94,0
1776458479534,297,76,0
1776458479535,297,113,0
1776458479536,297,66,0
1776458479536,297,-56,0
1776458479537,297,-71,0
1776458479537,297,-56,0
1776458479538,297,-136,0
1776458479539,297,-245,0
1776458479539,297,-210,0
1776458479540,297,-121,0
1776458479540,297,-158,0
1776458479541,297,-198,0
1776458479541,297,-252,0
1776458479542,297,-334,0
1776458479543,297,-213,0
1776458479543,297,-66,0
1776458479544,297,-161,0
1776458479544,297,-275,0
1776458479545,297,-215,0
1776458479546,297,-158,0
1776458479546,297,-200,0
1776458479547,297,-215,0
1776458479548,297,-193,0
1776458479548,297,-166,0
1776458479549,297,-156,0
1776458479550,297,-170,0
1776458479550,297,-151,0
1776458479551,297,-131,0
1776458479552,297,-225,0
1776458479552,297,-344,0
1776458479553,297,-257,0
1776458479553,297,-116,0
1776458479554,297,-94,0
1776458480098,297,-101,0
1776458480099,297,-178,0
1776458480099,297,-250,0
1776458480100,297,-188,0
1776458480100,297,-106,0
1776458480101,297,-116,0
1776458480101,297,-190,0
1776458480102,297,-173,0
1776458480102,297,-121,0
1776458480102,297,-156,0
1776458480103,297,-111,0
1776458480103,297,-89,0
1776458480104,297,-161,0
1776458480105,297,-166,0
1776458480105,297,-200,0
1776458480106,297,-265,0
1776458480106,297,-116,0
1776458480107,297,237,0
1776458480107,297,344,0
1776458480108,297,-86,0
1776458480108,297,-517,0
1776458480109,297,-408,0
1776458480109,297,-146,0
1776458480110,297,-121,0
1776458480110,297,-161,0
1776458480111,297,-148,0
1776458480111,297,-79,0
1776458480112,297,-24,0
1776458480112,297,-66,0
1776458480113,297,-64,0
1776458480115,297,9,0
1776458480115,297,-61,0
1776458480116,297,-153,0
1776458480116,297,-14,0
1776458480117,297,84,0
1776458480117,297,-52,0
1776458480118,297,-89,0
1776458480118,297,24,0
1776458480119,297,-32,0
1776458480119,297,-76,0
1776458480120,297,101,0
1776458480120,297,118,0
1776458480121,297,27,0
1776458480121,297,118,0
1776458480122,297,183,0
1776458480122,297,143,0
1776458480123,297,123,0
1776458480123,297,56,0
1776458480123,297,-4,0
1776458480124,297,29,0
1776458480124,297,-4,0
1776458480125,297,-116,0
1776458480126,297,-148,0
1776458480127,297,-173,0
1776458480127,297,-195,0
1776458480128,297,-205,0
1776458480129,297,-260,0
1776458480130,297,-235,0
1776458480130,297,-215,0
1776458480131,297,-262,0
1776458480132,297,-220,0
1776458480133,297,-185,0
1776458480133,297,-220,0
1776458480134,297,-173,0
1776458480135,297,-156,0
1776458480135,297,-247,0
1776458480136,297,-218,0
1776458480137,297,-136,0
1776458480137,297,-185,0
1776458480138,297,-178,0
1776458480138,297,-99,0
1776458480139,297,-138,0
1776458480140,297,-200,0
1776458480302,297,-200,0
1776458480303,297,-200,0
1776458480303,297,-200,0
1776458480304,297,-200,0
1776458480305,296,-200,0
1776458480306,299,-200,0
