timestamp,gsr,ecg,interval,label
1773668992587,383,-78,0,степ
1773668992609,383,-64,0,степ
1773668992611,383,-49,0,степ
1773668992613,383,-41,0,степ
1773668992615,383,-36,0,степ
1773668992616,383,-34,0,степ
1773668992618,383,-36,0,степ
1773668992619,383,-49,0,степ
1773668992620,383,-64,0,степ
1773668992622,383,-88,0,степ
1773668992623,383,-118,0,степ
1773668992625,383,-138,0,степ
1773668992626,383,-160,0,степ
1773668992628,383,-175,0,степ
1773668992629,383,-177,0,степ
1773668992629,383,-177,0,степ
1773668992630,383,-182,0,степ
1773668992631,383,-177,0,степ
1773668992632,383,-175,0,степ
1773668992633,383,-180,0,степ
1773668992634,383,-172,0,степ
1773668992635,383,-160,0,степ
1773668992645,383,-152,0,степ
1773668992646,383,-155,0,степ
1773668992647,383,-157,0,степ
1773668992648,383,-155,0,степ
1773668992649,383,-152,0,степ
1773668992650,383,-150,0,степ
1773668992650,383,-138,0,степ
1773668992651,383,-138,0,степ
1773668992652,383,-155,0,степ
1773668992653,383,-157,0,степ
1773668992654,383,-143,0,степ
1773668992655,383,-138,0,степ
1773668992656,383,-140,0,степ
1773668992657,383,-133,0,степ
1773668992658,383,-125,0,степ
1773668992659,383,-130,0,степ
1773668992660,383,-128,0,степ
1773668992661,383,-120,0,степ
1773668992662,383,-123,0,степ
1773668992663,383,-128,0,степ
1773668992663,383,-125,0,степ
1773668992664,383,-128,0,степ
1773668992665,383,-128,0,степ
1773668992666,383,-147,0,степ
1773668992667,383,-224,0,степ
1773668992667,383,-258,0,степ
1773668992668,383,-22,0,степ
1773668992669,383,456,0,степ
1773668992670,383,830,0,степ
1773668992671,383,752,0,степ
1773668992672,383,268,0,степ
1773668992673,383,-145,0,степ
1773668992674,383,-224,0,степ
1773668992675,383,-204,0,степ
1773668992676,383,-251,0,степ
1773668992677,383,-249,0,степ
1773668992678,383,-216,0,степ
1773668992678,383,-221,0,степ
1773668992679,383,-216,0,степ
1773668992680,383,-199,0,степ
1773668992681,383,-194,0,степ
1773668992682,383,-189,0,степ
1773668992682,383,-180,0,степ
1773668992683,383,-175,0,степ
1773668992684,383,-170,0,степ
1773668992685,383,-162,0,степ
1773668992686,383,-155,0,степ
1773668992687,383,-147,0,степ
1773668992688,383,-133,0,степ
1773668992689,383,-123,0,степ
1773668992690,383,-113,0,степ
1773668992692,383,-93,0,степ
1773668992693,384,-93,0,степ
1773668992800,383,-93,0,степ
1773668992900,383,-93,0,степ
1773668993002,384,-93,0,степ
1773668993081,383,-93,0,степ
1773668993148,383,-81,0,степ
1773668993150,383,-73,0,степ
1773668993151,383,-66,0,степ
1773668993152,383,-61,0,степ
1773668993154,383,-64,0,степ
1773668993155,383,-71,0,степ
1773668993156,383,-81,0,степ
1773668993158,383,-98,0,степ
1773668993160,383,-123,0,степ
1773668993161,383,-150,0,степ
1773668993162,383,-162,0,степ
1773668993163,383,-167,0,степ
1773668993164,383,-172,0,степ
1773668993166,383,-177,0,степ
1773668993167,383,-177,0,степ
1773668993168,383,-172,0,степ
1773668993169,383,-172,0,степ
1773668993171,383,-170,0,степ
1773668993172,383,-162,0,степ
1773668993173,383,-157,0,степ
1773668993174,383,-160,0,степ
1773668993176,383,-165,0,степ
1773668993177,383,-167,0,степ
1773668993179,383,-160,0,степ
1773668993180,383,-147,0,степ
1773668993181,383,-150,0,степ
1773668993182,383,-155,0,степ
1773668993183,383,-157,0,степ
1773668993184,383,-145,0,степ
1773668993185,383,-133,0,степ
1773668993186,383,-140,0,степ
1773668993187,383,-143,0,степ
1773668993189,383,-130,0,степ
1773668993190,383,-135,0,степ
1773668993191,383,-147,0,степ
1773668993193,383,-147,0,степ
1773668993194,383,-138,0,степ
1773668993195,383,-125,0,степ
1773668993196,383,-123,0,степ
1773668993197,383,-130,0,степ
1773668993199,383,-135,0,степ
1773668993200,383,-133,0,степ
1773668993201,383,-123,0,степ
1773668993203,383,-123,0,степ
1773668993205,383,-130,0,степ
1773668993206,383,-128,0,степ
1773668993208,383,-118,0,степ
1773668993210,383,-123,0,степ
1773668993213,383,-172,0,степ
1773668993215,383,-249,0,степ
1773668993218,383,-165,0,степ
1773668993219,383,221,0,степ
1773668993221,383,697,0,степ
1773668993222,383,858,0,степ
1773668993222,383,525,0,степ
1773668993223,383,9,0,степ
1773668993224,383,-219,0,степ
1773668993225,383,-202,0,степ
1773668993226,383,-221,0,степ
1773668993227,383,-251,0,степ
1773668993227,383,-224,0,степ
1773668993228,383,-214,0,степ
1773668993230,383,-216,0,степ
1773668993231,383,-199,0,степ
1773668993233,383,-194,0,степ
1773668993234,383,-194,0,степ
1773668993235,383,-187,0,степ
1773668993236,383,-180,0,степ
1773668993237,383,-175,0,степ
1773668993239,383,-167,0,степ
1773668993241,383,-165,0,степ
1773668993242,383,-157,0,степ
1773668993244,383,-145,0,степ
1773668993246,383,-145,0,степ
1773668993294,384,-145,0,степ
1773668993417,384,-145,0,степ
1773668993487,385,-145,0,степ
1773668993587,386,-145,0,степ
1773668993690,384,-145,0,степ
1773668993778,384,-135,0,степ
1773668993779,384,-138,0,степ
1773668993781,384,-133,0,степ
1773668993782,384,-115,0,степ
1773668993783,384,-98,0,степ
1773668993783,384,-88,0,степ
1773668993784,384,-91,0,степ
1773668993785,384,-91,0,степ
1773668993786,384,-91,0,степ
1773668993787,384,-93,0,степ
1773668993788,384,-108,0,степ
1773668993789,384,-133,0,степ
1773668993791,384,-152,0,степ
1773668993792,384,-165,0,степ
1773668993793,384,-180,0,степ
1773668993794,384,-192,0,степ
1773668993795,384,-189,0,степ
1773668993795,384,-187,0,степ
1773668993796,384,-187,0,степ
1773668993797,384,-172,0,степ
1773668993798,384,-155,0,степ
1773668993799,384,-152,0,степ
1773668993800,384,-157,0,степ
1773668993801,384,-147,0,степ
1773668993802,384,-140,0,степ
1773668993803,384,-145,0,степ
1773668993805,384,-138,0,степ
1773668993806,384,-123,0,степ
1773668993808,384,-123,0,степ
1773668993809,384,-128,0,степ
1773668993811,384,-128,0,степ
1773668993812,384,-120,0,степ
1773668993813,384,-110,0,степ
1773668993814,384,-108,0,степ
1773668993815,384,-115,0,степ
1773668993816,384,-113,0,степ
1773668993817,384,-106,0,степ
1773668993818,384,-103,0,степ
1773668993819,384,-108,0,степ
1773668993820,384,-103,0,степ
1773668993821,384,-106,0,степ
1773668993823,384,-120,0,степ
1773668993824,384,-123,0,степ
1773668993825,384,-108,0,степ
1773668993826,384,-98,0,степ
1773668993827,384,-93,0,степ
1773668993828,384,-86,0,степ
1773668993829,384,-91,0,степ
1773668993830,384,-91,0,степ
1773668993831,384,-83,0,степ
1773668993832,384,-106,0,степ
1773668993833,384,-128,0,степ
1773668993834,384,-115,0,степ
1773668993835,384,-106,0,степ
1773668993836,384,-108,0,степ
1773668993837,384,-115,0,степ
1773668993838,384,-182,0,степ
1773668993839,384,-219,0,степ
1773668993840,384,0,0,степ
1773668993842,384,456,0,степ
1773668993843,384,806,0,степ
1773668993844,384,710,0,степ
1773668993845,384,226,0,степ
1773668993846,384,-152,0,степ
1773668993847,384,-192,0,степ
1773668993848,384,-177,0,степ
1773668993848,384,-226,0,степ
1773668993849,384,-224,0,степ
1773668993850,384,-194,0,степ
1773668993851,384,-197,0,степ
1773668993852,384,-194,0,степ
1773668993853,384,-180,0,степ
1773668993854,384,-170,0,степ
1773668993855,382,-170,0,степ
1773668993904,384,-170,0,степ
1773668993981,382,-170,0,степ
1773668994105,382,-170,0,степ
1773668994184,383,-170,0,степ
1773668994297,382,-170,0,степ
1773668994318,382,-155,0,степ
1773668994320,382,-143,0,степ
1773668994321,382,-147,0,степ
1773668994321,382,-147,0,степ
1773668994323,382,-130,0,степ
1773668994324,382,-120,0,степ
1773668994325,382,-135,0,степ
1773668994325,382,-130,0,степ
1773668994326,382,-106,0,степ
1773668994327,382,-101,0,степ
1773668994328,382,-103,0,степ
1773668994329,382,-81,0,степ
1773668994331,382,-64,0,степ
1773668994332,382,-64,0,степ
1773668994333,382,-66,0,степ
1773668994333,382,-69,0,степ
1773668994334,382,-76,0,степ
1773668994335,382,-86,0,степ
1773668994336,382,-98,0,степ
1773668994336,382,-120,0,степ
1773668994337,382,-143,0,степ
1773668994338,382,-155,0,степ
1773668994339,382,-170,0,степ
1773668994340,382,-187,0,степ
1773668994341,382,-187,0,степ
1773668994342,382,-177,0,степ
1773668994344,382,-170,0,степ
1773668994345,382,-180,0,степ
1773668994345,382,-194,0,степ
1773668994346,382,-187,0,степ
1773668994347,382,-167,0,степ
1773668994348,382,-160,0,степ
1773668994348,382,-167,0,степ
1773668994349,382,-167,0,степ
1773668994350,382,-155,0,степ
1773668994350,382,-143,0,степ
1773668994351,382,-147,0,степ
1773668994352,382,-152,0,степ
1773668994353,382,-147,0,степ
1773668994354,382,-143,0,степ
1773668994355,382,-135,0,степ
1773668994355,382,-133,0,степ
1773668994356,382,-133,0,степ
1773668994357,382,-130,0,степ
1773668994358,382,-125,0,степ
1773668994359,382,-128,0,степ
1773668994360,382,-140,0,степ
1773668994360,382,-140,0,степ
1773668994361,382,-133,0,степ
1773668994362,382,-133,0,степ
1773668994363,382,-130,0,степ
1773668994364,382,-120,0,степ
1773668994365,382,-115,0,степ
1773668994365,382,-115,0,степ
1773668994366,382,-123,0,степ
1773668994367,382,-128,0,степ
1773668994368,382,-125,0,степ
1773668994369,382,-125,0,степ
1773668994369,382,-123,0,степ
1773668994370,382,-125,0,степ
1773668994371,382,-128,0,степ
1773668994372,382,-150,0,степ
1773668994373,382,-216,0,степ
1773668994374,382,-234,0,степ
1773668994374,382,-7,0,степ
1773668994375,382,414,0,степ
1773668994376,382,690,0,степ
1773668994377,382,535,0,степ
1773668994378,382,73,0,степ
1773668994379,382,-229,0,степ
1773668994380,382,-229,0,степ
1773668994381,382,-209,0,степ
1773668994381,382,-261,0,степ
1773668994395,381,-261,0,степ
1773668994497,383,-261,0,степ
1773668994590,384,-261,0,степ
1773668994688,392,-261,0,степ
1773668994788,393,-261,0,степ
1773668994858,393,-258,0,степ
1773668994860,393,-236,0,степ
1773668994861,393,-246,0,степ
1773668994863,393,-241,0,степ
1773668994864,393,-221,0,степ
1773668994865,393,-221,0,степ
1773668994866,393,-216,0,степ
1773668994867,393,-202,0,степ
1773668994868,393,-199,0,степ
1773668994869,393,-197,0,степ
1773668994869,393,-182,0,степ
1773668994870,393,-180,0,степ
1773668994871,393,-177,0,степ
1773668994873,393,-165,0,степ
1773668994874,393,-147,0,степ
1773668994875,393,-138,0,степ
1773668994875,393,-120,0,степ
1773668994877,393,-106,0,степ
1773668994878,393,-93,0,степ
1773668994878,393,-78,0,степ
1773668994879,393,-69,0,степ
1773668994880,393,-66,0,степ
1773668994881,393,-66,0,степ
1773668994882,393,-69,0,степ
1773668994883,393,-81,0,степ
1773668994884,393,-98,0,степ
1773668994885,393,-123,0,степ
1773668994885,393,-140,0,степ
1773668994886,393,-150,0,степ
1773668994887,393,-157,0,степ
1773668994888,393,-162,0,степ
1773668994889,393,-165,0,степ
1773668994890,393,-157,0,степ
1773668994891,393,-147,0,степ
1773668994892,393,-140,0,степ
1773668994893,393,-135,0,степ
1773668994894,393,-125,0,степ
1773668994895,393,-118,0,степ
1773668994896,393,-108,0,степ
1773668994897,393,-98,0,степ
1773668994898,393,-93,0,степ
1773668994899,393,-91,0,степ
1773668994900,393,-88,0,степ
1773668994901,393,-96,0,степ
1773668994902,393,-98,0,степ
1773668994903,393,-86,0,степ
1773668994904,393,-81,0,степ
1773668994905,393,-81,0,степ
1773668994906,393,-66,0,степ
1773668994907,393,-49,0,степ
1773668994908,393,-66,0,степ
1773668994909,393,-106,0,степ
1773668994910,393,-101,0,степ
1773668994911,393,-64,0,степ
1773668994912,393,-61,0,степ
1773668994913,393,-73,0,степ
1773668994914,393,-64,0,степ
1773668994915,393,-49,0,степ
1773668994916,393,-51,0,степ
1773668994917,393,-51,0,степ
1773668994918,393,-49,0,степ
1773668994918,393,-51,0,степ
1773668994919,393,-56,0,степ
1773668994920,393,-71,0,степ
1773668994921,393,-133,0,степ
1773668994922,393,-125,0,степ
1773668994923,393,133,0,степ
1773668994924,393,562,0,степ
1773668994925,393,813,0,степ
1773668994927,393,621,0,степ
1773668994928,393,152,0,степ
1773668994930,393,-110,0,степ
1773668994930,393,-73,0,степ
1773668994932,391,-73,0,степ
1773668995005,413,-73,0,степ
1773668995082,403,-73,0,степ
1773668995205,402,-73,0,степ
1773668995325,401,-73,0,степ
1773668995400,402,-73,0,степ
1773668995489,402,-64,0,степ
1773668995490,402,-115,0,степ
1773668995491,402,-81,0,степ
1773668995492,402,-46,0,степ
1773668995493,402,-59,0,степ
1773668995493,402,-59,0,степ
1773668995494,402,-44,0,степ
1773668995495,402,-34,0,степ
1773668995496,402,-4,0,степ
1773668995497,402,36,0,степ
1773668995498,402,71,0,степ
1773668995499,402,73,0,степ
1773668995500,402,27,0,степ
1773668995501,402,-29,0,степ
1773668995502,402,-41,0,степ
1773668995502,402,-29,0,степ
1773668995503,402,-24,0,степ
1773668995504,402,-7,0,степ
1773668995505,402,9,0,степ
1773668995506,402,7,0,степ
1773668995507,402,27,0,степ
1773668995508,402,59,0,степ
1773668995509,402,51,0,степ
1773668995509,402,29,0,степ
1773668995510,402,22,0,степ
1773668995511,402,27,0,степ
1773668995512,402,24,0,степ
1773668995513,402,-24,0,степ
1773668995514,402,-76,0,степ
1773668995514,402,-61,0,степ
1773668995515,402,-56,0,степ
1773668995516,402,-96,0,степ
1773668995517,402,-118,0,степ
1773668995518,402,-120,0,степ
1773668995519,402,-96,0,степ
1773668995519,402,-76,0,степ
1773668995520,402,-123,0,степ
1773668995521,402,-160,0,степ
1773668995522,402,-147,0,степ
1773668995524,402,-145,0,степ
1773668995526,402,-143,0,степ
1773668995527,402,-133,0,степ
1773668995528,402,-128,0,степ
1773668995529,402,-86,0,степ
1773668995530,402,-39,0,степ
1773668995531,402,-81,0,степ
1773668995532,402,-150,0,степ
1773668995533,402,-155,0,степ
1773668995534,402,-125,0,степ
1773668995535,402,-110,0,степ
1773668995535,402,-118,0,степ
1773668995536,402,-150,0,степ
1773668995537,402,-138,0,степ
1773668995538,402,-103,0,степ
1773668995539,402,-133,0,степ
1773668995540,402,-167,0,степ
1773668995541,402,-140,0,степ
1773668995542,402,-115,0,степ
1773668995543,402,-120,0,степ
1773668995544,402,-143,0,степ
1773668995545,402,-155,0,степ
1773668995546,402,-133,0,степ
1773668995547,402,-157,0,степ
1773668995547,402,-246,0,степ
1773668995548,402,-224,0,степ
1773668995549,402,78,0,степ
1773668995550,402,549,0,степ
1773668995550,402,779,0,степ
1773668995551,402,503,0,степ
1773668995552,402,2,0,степ
1773668995553,402,-229,0,степ
1773668995553,402,-177,0,степ
1773668995554,402,-165,0,степ
1773668995556,401,-165,0,степ
1773668995597,401,-165,0,степ
1773668995693,402,-165,0,степ
1773668995786,401,-165,0,степ
1773668995885,390,-165,0,степ
1773668995939,390,-234,0,степ
1773668995940,390,-221,0,степ
1773668995941,390,-172,0,степ
1773668995942,390,-177,0,степ
1773668995943,390,-202,0,степ
1773668995944,390,-182,0,степ
1773668995946,390,-155,0,степ
1773668995947,390,-160,0,степ
1773668995948,390,-167,0,степ
1773668995949,390,-155,0,степ
1773668995951,390,-143,0,степ
1773668995952,390,-143,0,степ
1773668995952,390,-138,0,степ
1773668995953,390,-145,0,степ
1773668995954,390,-182,0,степ
1773668995955,390,-214,0,степ
1773668995957,390,-197,0,степ
1773668995958,390,-170,0,степ
1773668995958,390,-157,0,степ
1773668995959,390,-145,0,степ
1773668995960,390,-128,0,степ
1773668995961,390,-118,0,степ
1773668995962,390,-101,0,степ
1773668995963,390,-93,0,степ
1773668995963,390,-123,0,степ
1773668995964,390,-155,0,степ
1773668995965,390,-170,0,степ
1773668995966,390,-177,0,степ
1773668995967,390,-180,0,степ
1773668995968,390,-187,0,степ
1773668995968,390,-189,0,степ
1773668995970,390,-182,0,степ
1773668995971,390,-192,0,степ
1773668995973,390,-214,0,степ
1773668995974,390,-199,0,степ
1773668995976,390,-143,0,степ
1773668995978,390,-130,0,степ
1773668995979,390,-160,0,степ
1773668995981,390,-138,0,степ
1773668995982,390,-98,0,степ
1773668995983,390,-106,0,степ
1773668995984,390,-133,0,степ
1773668995985,390,-167,0,степ
1773668995986,390,-197,0,степ
1773668995987,390,-207,0,степ
1773668995988,390,-207,0,степ
1773668995989,390,-192,0,степ
1773668995990,390,-175,0,степ
1773668995991,390,-162,0,степ
1773668995992,390,-138,0,степ
1773668995993,390,-125,0,степ
1773668995994,390,-138,0,степ
1773668995995,390,-165,0,степ
1773668995996,390,-202,0,степ
1773668995997,390,-244,0,степ
1773668995998,390,-258,0,степ
1773668995999,390,-214,0,степ
1773668996000,390,-167,0,степ
1773668996001,390,-167,0,степ
1773668996001,390,-189,0,степ
1773668996002,390,-253,0,степ
1773668996003,390,-286,0,степ
1773668996005,390,-78,0,степ
1773668996006,390,355,0,степ
1773668996006,390,687,0,степ
1773668996007,390,579,0,степ
1773668996008,390,113,0,степ
1773668996009,390,-212,0,степ
1773668996010,390,-197,0,степ
1773668996011,390,-175,0,степ
1773668996012,390,-249,0,степ
1773668996013,390,-253,0,степ
1773668996014,390,-202,0,степ
1773668996016,392,-202,0,степ
1773668996084,392,-202,0,степ
1773668996182,392,-202,0,степ
1773668996281,431,-202,0,степ
1773668996399,412,-202,0,степ
1773668996503,398,-202,0,степ
1773668996521,398,-167,0,степ
1773668996521,398,-145,0,степ
1773668996521,398,-135,0,степ
1773668996521,398,-140,0,степ
1773668996521,398,-138,0,степ
1773668996529,398,-128,0,степ
1773668996529,398,-125,0,степ
1773668996529,398,-115,0,степ
1773668996529,398,-110,0,степ
1773668996529,398,-113,0,степ
1773668996529,398,-115,0,степ
1773668996529,398,-106,0,степ
1773668996529,398,-86,0,степ
1773668996529,398,-73,0,степ
1773668996529,398,-61,0,степ
1773668996539,398,-41,0,степ
1773668996539,398,-22,0,степ
1773668996539,398,0,0,степ
1773668996542,398,12,0,степ
1773668996542,398,12,0,степ
1773668996542,398,9,0,степ
1773668996542,398,-4,0,степ
1773668996542,398,-32,0,степ
1773668996542,398,-51,0,степ
1773668996542,398,-78,0,степ
1773668996542,398,-98,0,степ
1773668996542,398,-103,0,степ
1773668996542,398,-118,0,степ
1773668996542,398,-128,0,степ
1773668996542,398,-115,0,степ
1773668996542,398,-110,0,степ
1773668996542,398,-120,0,степ
1773668996542,398,-120,0,степ
1773668996555,398,-115,0,степ
1773668996555,398,-113,0,степ
1773668996555,398,-110,0,степ
1773668996555,398,-110,0,степ
1773668996555,398,-101,0,степ
1773668996555,398,-86,0,степ
1773668996555,398,-88,0,степ
1773668996555,398,-93,0,степ
1773668996555,398,-66,0,степ
1773668996563,398,-54,0,степ
1773668996563,398,-73,0,степ
1773668996563,398,-83,0,степ
1773668996563,398,-71,0,степ
1773668996563,398,-56,0,степ
1773668996563,398,-56,0,степ
1773668996563,398,-66,0,степ
1773668996563,398,-73,0,степ
1773668996563,398,-78,0,степ
1773668996563,398,-78,0,степ
1773668996571,398,-78,0,степ
1773668996571,398,-73,0,степ
1773668996571,398,-73,0,степ
1773668996571,398,-108,0,степ
1773668996571,398,-187,0,степ
1773668996571,398,-167,0,степ
1773668996571,398,113,0,степ
1773668996571,398,520,0,степ
1773668996571,398,697,0,степ
1773668996579,398,453,0,степ
1773668996579,398,14,0,степ
1773668996579,398,-199,0,степ
1773668996579,398,-167,0,степ
1773668996579,398,-155,0,степ
1773668996579,398,-199,0,степ
1773668996579,398,-197,0,степ
1773668996579,398,-172,0,степ
1773668996579,398,-162,0,степ
1773668996579,398,-162,0,степ
1773668996587,398,-157,0,степ
1773668996587,398,-150,0,степ
1773668996595,398,-150,0,степ
1773668996688,399,-150,0,степ
1773668996788,399,-150,0,степ
1773668996888,396,-150,0,степ
1773668996988,397,-150,0,степ
1773668997088,389,-150,0,степ
1773668997107,389,-152,0,степ
1773668997107,389,-147,0,степ
1773668997107,389,-140,0,степ
1773668997107,389,-157,0,степ
1773668997107,389,-155,0,степ
1773668997107,389,-128,0,степ
1773668997107,389,-130,0,степ
1773668997115,389,-130,0,степ
1773668997115,389,-101,0,степ
1773668997115,389,-76,0,степ
1773668997115,389,-71,0,степ
1773668997115,389,-61,0,степ
1773668997115,389,-44,0,степ
1773668997115,389,-29,0,степ
1773668997115,389,-19,0,степ
1773668997115,389,-19,0,степ
1773668997123,389,-29,0,степ
1773668997123,389,-44,0,степ
1773668997123,389,-59,0,степ
1773668997123,389,-96,0,степ
1773668997123,389,-143,0,степ
1773668997123,389,-155,0,степ
1773668997123,389,-145,0,степ
1773668997123,389,-160,0,степ
1773668997123,389,-182,0,степ
1773668997123,389,-197,0,степ
1773668997123,389,-204,0,степ
1773668997123,389,-187,0,степ
1773668997123,389,-157,0,степ
1773668997123,389,-138,0,степ
1773668997123,389,-130,0,степ
1773668997123,389,-135,0,степ
1773668997123,389,-128,0,степ
1773668997123,389,-123,0,степ
1773668997139,389,-130,0,степ
1773668997140,389,-123,0,степ
1773668997140,389,-113,0,степ
1773668997140,389,-113,0,степ
1773668997140,389,-83,0,степ
1773668997140,389,-56,0,степ
1773668997140,389,-71,0,степ
1773668997140,389,-86,0,степ
1773668997140,389,-86,0,степ
1773668997148,389,-81,0,степ
1773668997148,389,-69,0,степ
1773668997148,389,-64,0,степ
1773668997148,389,-71,0,степ
1773668997148,389,-69,0,степ
1773668997148,389,-59,0,степ
1773668997148,389,-54,0,степ
1773668997148,389,-51,0,степ
1773668997148,389,-54,0,степ
1773668997155,389,-98,0,степ
1773668997155,389,-170,0,степ
1773668997155,389,-83,0,степ
1773668997155,389,271,0,степ
1773668997155,389,685,0,степ
1773668997155,389,784,0,степ
1773668997155,389,419,0,степ
1773668997155,389,-49,0,степ
1773668997155,389,-170,0,степ
1773668997155,389,-103,0,степ
1773668997155,389,-147,0,степ
1773668997163,389,-177,0,степ
1773668997163,389,-120,0,степ
1773668997163,389,-120,0,степ
1773668997163,389,-150,0,степ
1773668997163,389,-106,0,степ
1773668997163,389,-76,0,степ
1773668997163,389,-103,0,степ
1773668997163,389,-113,0,степ
1773668997163,389,-91,0,степ
1773668997163,389,-83,0,степ
1773668997173,355,-83,0,степ
1773668997272,363,-83,0,степ
1773668997386,367,-83,0,степ
1773668997484,367,-83,0,степ
1773668997602,436,-83,0,степ
1773668997647,436,-86,0,степ
1773668997647,436,-81,0,степ
1773668997647,436,-66,0,степ
1773668997652,436,-51,0,степ
1773668997652,436,-34,0,степ
1773668997655,436,-27,0,степ
1773668997655,436,-17,0,степ
1773668997655,436,22,0,степ
1773668997655,436,49,0,степ
1773668997655,436,32,0,степ
1773668997655,436,32,0,степ
1773668997655,436,69,0,степ
1773668997655,436,76,0,степ
1773668997655,436,32,0,степ
1773668997655,436,-14,0,степ
1773668997663,436,-36,0,степ
1773668997663,436,-46,0,степ
1773668997663,436,-66,0,степ
1773668997663,436,-101,0,степ
1773668997663,436,-125,0,степ
1773668997663,436,-113,0,степ
1773668997663,436,-91,0,степ
1773668997663,436,-91,0,степ
1773668997663,436,-81,0,степ
1773668997663,436,-81,0,степ
1773668997671,436,-106,0,степ
1773668997671,436,-103,0,степ
1773668997671,436,-88,0,степ
1773668997671,436,-106,0,степ
1773668997671,436,-118,0,степ
1773668997671,436,-123,0,степ
1773668997671,436,-140,0,степ
1773668997671,436,-140,0,степ
1773668997679,436,-113,0,степ
1773668997679,436,-110,0,степ
1773668997679,436,-130,0,степ
1773668997679,436,-140,0,степ
1773668997679,436,-140,0,степ
1773668997679,436,-125,0,степ
1773668997679,436,-115,0,степ
1773668997679,436,-138,0,степ
1773668997679,436,-175,0,степ
1773668997679,436,-194,0,степ
1773668997687,436,-189,0,степ
1773668997688,436,-177,0,степ
1773668997688,436,-184,0,степ
1773668997688,436,-192,0,степ
1773668997688,436,-226,0,степ
1773668997688,436,-310,0,степ
1773668997688,436,-305,0,степ
1773668997688,436,-61,0,степ
1773668997688,436,357,0,степ
1773668997688,436,628,0,степ
1773668997688,436,470,0,степ
1773668997688,436,24,0,степ
1773668997688,436,-266,0,степ
1773668997688,436,-253,0,степ
1773668997688,436,-234,0,степ
1773668997688,436,-295,0,степ
1773668997688,436,-290,0,степ
1773668997688,436,-249,0,степ
1773668997688,436,-258,0,степ
1773668997688,436,-263,0,степ
1773668997704,436,-236,0,степ
1773668997704,436,-226,0,степ
1773668997704,436,-224,0,степ
1773668997704,436,-204,0,степ
1773668997709,436,-189,0,степ
1773668997709,436,-184,0,степ
1773668997709,436,-167,0,степ
1773668997709,436,-152,0,степ
1773668997709,436,-150,0,степ
1773668997709,436,-133,0,степ
1773668997709,413,-133,0,степ
1773668997788,360,-133,0,степ
1773668997895,393,-133,0,степ
1773668997996,411,-133,0,степ
1773668998096,403,-133,0,степ
1773668998188,401,-133,0,степ
1773668998223,401,-106,0,степ
1773668998223,401,-86,0,степ
1773668998223,401,-66,0,степ
1773668998223,401,-51,0,степ
1773668998223,401,-41,0,степ
1773668998238,401,-29,0,степ
1773668998238,401,-24,0,степ
1773668998238,401,-34,0,степ
1773668998238,401,-46,0,степ
1773668998238,401,-64,0,степ
1773668998238,401,-96,0,степ
1773668998238,401,-133,0,степ
1773668998246,401,-170,0,степ
1773668998246,401,-204,0,степ
1773668998246,401,-224,0,степ
1773668998246,401,-226,0,степ
1773668998246,401,-216,0,степ
1773668998246,401,-214,0,степ
1773668998246,401,-224,0,степ
1773668998246,401,-226,0,степ
1773668998246,401,-216,0,степ
1773668998255,401,-212,0,степ
1773668998255,401,-202,0,степ
1773668998255,401,-180,0,степ
1773668998257,401,-170,0,степ
1773668998257,401,-180,0,степ
1773668998257,401,-184,0,степ
1773668998257,401,-184,0,степ
1773668998257,401,-182,0,степ
1773668998257,401,-180,0,степ
1773668998257,401,-177,0,степ
1773668998257,401,-170,0,степ
1773668998257,401,-157,0,степ
1773668998257,401,-152,0,степ
1773668998257,401,-145,0,степ
1773668998257,401,-135,0,степ
1773668998257,401,-138,0,степ
1773668998257,401,-145,0,степ
1773668998257,401,-155,0,степ
1773668998257,401,-160,0,степ
1773668998257,401,-150,0,степ
1773668998271,401,-145,0,степ
1773668998271,401,-155,0,степ
1773668998271,401,-214,0,степ
1773668998271,401,-286,0,степ
1773668998271,401,-207,0,степ
1773668998271,401,140,0,степ
1773668998271,401,594,0,степ
1773668998271,401,791,0,степ
1773668998271,401,505,0,степ
1773668998279,401,-7,0,степ
1773668998279,401,-249,0,степ
1773668998279,401,-221,0,степ
1773668998279,401,-236,0,степ
1773668998279,401,-283,0,степ
1773668998279,401,-258,0,степ
1773668998279,401,-234,0,степ
1773668998279,401,-236,0,степ
1773668998279,401,-231,0,степ
1773668998279,401,-224,0,степ
1773668998279,401,-224,0,степ
1773668998287,401,-212,0,степ
1773668998288,401,-189,0,степ
1773668998288,401,-182,0,степ
1773668998288,401,-180,0,степ
1773668998288,401,-184,0,степ
1773668998288,401,-177,0,степ
1773668998288,401,-152,0,степ
1773668998288,401,-135,0,степ
1773668998288,401,-130,0,степ
1773668998288,401,-108,0,степ
1773668998288,401,-73,0,степ
1773668998296,401,-49,0,степ
1773668998296,408,-49,0,степ
1773668998387,405,-49,0,степ
1773668998488,407,-49,0,степ
1773668998586,408,-49,0,степ
1773668998670,406,-49,0,степ
1773668998760,406,-44,0,степ
1773668998760,406,-46,0,степ
1773668998776,406,-34,0,степ
1773668998776,406,-17,0,степ
1773668998776,406,-29,0,степ
1773668998776,406,-59,0,степ
1773668998776,406,-64,0,степ
1773668998776,406,-83,0,степ
1773668998776,406,-135,0,степ
1773668998776,406,-170,0,степ
1773668998776,406,-172,0,степ
1773668998776,406,-172,0,степ
1773668998776,406,-175,0,степ
1773668998776,406,-177,0,степ
1773668998776,406,-184,0,степ
1773668998776,406,-189,0,степ
1773668998776,406,-180,0,степ
1773668998788,406,-170,0,степ
1773668998789,406,-167,0,степ
1773668998790,406,-165,0,степ
1773668998790,406,-157,0,степ
1773668998790,406,-172,0,степ
1773668998790,406,-199,0,степ
1773668998790,406,-180,0,степ
1773668998790,406,-145,0,степ
1773668998790,406,-150,0,степ
1773668998790,406,-147,0,степ
1773668998790,406,-133,0,степ
1773668998790,406,-130,0,степ
1773668998790,406,-125,0,степ
1773668998790,406,-115,0,степ
1773668998790,406,-120,0,степ
1773668998790,406,-125,0,степ
1773668998790,406,-113,0,степ
1773668998790,406,-133,0,степ
1773668998806,406,-152,0,степ
1773668998807,406,-123,0,степ
1773668998807,406,-113,0,степ
1773668998807,406,-133,0,степ
1773668998807,406,-165,0,степ
1773668998807,406,-226,0,степ
1773668998807,406,-160,0,степ
1773668998807,406,167,0,степ
1773668998807,406,586,0,степ
1773668998807,406,766,0,степ
1773668998815,406,488,0,степ
1773668998815,406,-19,0,степ
1773668998815,406,-246,0,степ
1773668998815,406,-197,0,степ
1773668998815,406,-207,0,степ
1773668998815,406,-258,0,степ
1773668998815,406,-226,0,степ
1773668998822,406,-194,0,степ
1773668998822,406,-219,0,степ
1773668998822,406,-216,0,степ
1773668998822,406,-182,0,степ
1773668998822,406,-182,0,степ
1773668998822,406,-189,0,степ
1773668998822,406,-177,0,степ
1773668998822,406,-160,0,степ
1773668998830,406,-140,0,степ
1773668998830,406,-138,0,степ
1773668998830,406,-145,0,степ
1773668998830,406,-130,0,степ
1773668998830,406,-103,0,степ
1773668998830,406,-91,0,степ
1773668998830,406,-81,0,степ
1773668998837,406,-59,0,степ
1773668998839,406,-41,0,степ
1773668998839,406,-27,0,степ
1773668998840,406,-17,0,степ
1773668998841,406,0,0,степ
1773668998842,406,22,0,степ
1773668998843,405,22,0,степ
1773668998904,406,22,0,степ
1773668998993,401,22,0,степ
1773668999099,403,22,0,степ
1773668999201,380,22,0,степ
1773668999301,379,22,0,степ
1773668999313,379,7,0,степ
1773668999314,379,-34,0,степ
1773668999315,379,-83,0,степ
1773668999316,379,-108,0,степ
1773668999317,379,-115,0,степ
1773668999318,379,-138,0,степ
1773668999319,379,-155,0,степ
1773668999320,379,-155,0,степ
1773668999321,379,-160,0,степ
1773668999322,379,-155,0,степ
1773668999323,379,-140,0,степ
1773668999323,379,-133,0,степ
1773668999324,379,-125,0,степ
1773668999325,379,-115,0,степ
1773668999326,379,-108,0,степ
1773668999326,379,-113,0,степ
1773668999329,379,-120,0,степ
1773668999330,379,-108,0,степ
1773668999331,379,-110,0,степ
1773668999332,379,-135,0,степ
1773668999333,379,-135,0,степ
1773668999334,379,-106,0,степ
1773668999334,379,-91,0,степ
1773668999335,379,-91,0,степ
1773668999336,379,-81,0,степ
1773668999337,379,-76,0,степ
1773668999338,379,-71,0,степ
1773668999339,379,-73,0,степ
1773668999340,379,-93,0,степ
1773668999341,379,-106,0,степ
1773668999342,379,-108,0,степ
1773668999343,379,-103,0,степ
1773668999344,379,-91,0,степ
1773668999345,379,-96,0,степ
1773668999346,379,-115,0,степ
1773668999347,379,-165,0,степ
1773668999348,379,-187,0,степ
1773668999349,379,12,0,степ
1773668999350,379,441,0,степ
1773668999351,379,808,0,степ
1773668999351,379,784,0,степ
1773668999352,379,337,0,степ
1773668999353,379,-152,0,степ
1773668999354,379,-310,0,степ
1773668999355,379,-219,0,степ
1773668999356,379,-192,0,степ
1773668999357,379,-263,0,степ
1773668999358,379,-266,0,степ
1773668999359,379,-177,0,степ
1773668999359,379,-152,0,степ
1773668999360,379,-187,0,степ
1773668999361,379,-133,0,степ
1773668999362,379,-81,0,степ
1773668999363,379,-133,0,степ
1773668999364,379,-165,0,степ
1773668999364,379,-130,0,степ
1773668999365,379,-108,0,степ
1773668999366,379,-101,0,степ
1773668999367,379,-64,0,степ
1773668999368,379,-54,0,степ
1773668999369,379,-101,0,степ
1773668999369,379,-106,0,степ
1773668999370,379,-9,0,степ
1773668999371,379,51,0,степ
1773668999372,379,19,0,степ
1773668999373,379,-4,0,степ
1773668999374,379,17,0,степ
1773668999374,379,54,0,степ
1773668999375,379,51,0,степ
1773668999376,379,14,0,степ
1773668999377,379,-9,0,степ
1773668999378,379,-34,0,степ
1773668999379,379,-78,0,степ
1773668999392,372,-78,0,степ
1773668999494,366,-78,0,степ
1773668999592,360,-78,0,степ
1773668999692,363,-78,0,степ
1773668999782,369,-78,0,степ
1773668999886,368,-78,0,степ
1773668999899,368,-96,0,степ
1773668999900,368,-81,0,степ
1773668999901,368,-106,0,степ
1773668999902,368,-150,0,степ
1773668999902,368,-143,0,степ
1773668999903,368,-108,0,степ
1773668999905,368,-108,0,степ
1773668999906,368,-110,0,степ
1773668999907,368,-108,0,степ
1773668999908,368,-115,0,степ
1773668999909,368,-93,0,степ
1773668999909,368,-71,0,степ
1773668999910,368,-98,0,степ
1773668999911,368,-125,0,степ
1773668999912,368,-120,0,степ
1773668999913,368,-113,0,степ
1773668999914,368,-120,0,степ
1773668999915,368,-108,0,степ
1773668999916,368,-86,0,степ
1773668999917,368,-81,0,степ
1773668999917,368,-81,0,степ
1773668999918,368,-76,0,степ
1773668999919,368,-73,0,степ
1773668999920,368,-71,0,степ
1773668999921,368,-71,0,степ
1773668999922,368,-81,0,степ
1773668999923,368,-78,0,степ
1773668999925,368,-66,0,степ
1773668999926,368,-69,0,степ
1773668999928,368,-110,0,степ
1773668999929,368,-184,0,степ
1773668999929,368,-180,0,степ
1773668999930,368,81,0,степ
1773668999931,368,515,0,степ
1773668999932,368,749,0,степ
1773668999933,368,512,0,степ
1773668999934,368,51,0,степ
1773668999935,368,-150,0,степ
1773668999935,368,-108,0,степ
1773668999936,368,-145,0,степ
1773668999937,368,-192,0,степ
1773668999938,368,-140,0,степ
1773668999939,368,-133,0,степ
1773668999940,368,-160,0,степ
1773668999941,368,-123,0,степ
1773668999942,368,-88,0,степ
1773668999943,368,-106,0,степ
1773668999944,368,-106,0,степ
1773668999945,368,-71,0,степ
1773668999945,368,-59,0,степ
1773668999946,368,-73,0,степ
1773668999947,368,-73,0,степ
1773668999948,368,-56,0,степ
1773668999948,368,-39,0,степ
1773668999949,368,-27,0,степ
1773668999950,368,-19,0,степ
1773668999951,368,-14,0,степ
1773668999952,368,4,0,степ
1773668999952,368,34,0,степ
1773668999954,368,39,0,степ
1773668999955,368,36,0,степ
1773668999956,368,41,0,степ
1773668999957,368,39,0,степ
1773668999958,368,22,0,степ
1773668999958,368,-9,0,степ
1773668999959,368,-51,0,степ
1773668999960,368,-81,0,степ
1773668999961,368,-110,0,степ
1773668999962,368,-145,0,степ
1773668999962,368,-162,0,степ
1773668999963,368,-172,0,степ
1773668999964,368,-180,0,степ
1773668999964,368,-180,0,степ
1773669000013,419,-180,0,степ
1773669000102,380,-180,0,степ
1773669000202,369,-180,0,степ
1773669000283,372,-180,0,степ
1773669000383,371,-180,0,степ
1773669000493,370,-180,0,степ
1773669000529,370,-175,0,степ
1773669000530,370,-170,0,степ
1773669000531,370,-172,0,степ
1773669000532,370,-170,0,степ
1773669000533,370,-165,0,степ
1773669000535,370,-165,0,степ
1773669000535,370,-160,0,степ
1773669000536,370,-160,0,степ
1773669000537,370,-170,0,степ
1773669000538,370,-177,0,степ
1773669000539,370,-175,0,степ
1773669000540,370,-170,0,степ
1773669000541,370,-162,0,степ
1773669000542,370,-152,0,степ
1773669000542,370,-150,0,степ
1773669000543,370,-150,0,степ
1773669000544,370,-150,0,степ
1773669000545,370,-157,0,степ
1773669000546,370,-162,0,степ
1773669000547,370,-155,0,степ
1773669000548,370,-152,0,степ
1773669000549,370,-160,0,степ
1773669000550,370,-157,0,степ
1773669000550,370,-152,0,степ
1773669000551,370,-209,0,степ
1773669000552,370,-310,0,степ
1773669000553,370,-261,0,степ
1773669000554,370,91,0,степ
1773669000555,370,567,0,степ
1773669000556,370,766,0,степ
1773669000557,370,480,0,степ
1773669000557,370,-27,0,степ
1773669000558,370,-266,0,степ
1773669000559,370,-226,0,степ
1773669000560,370,-244,0,степ
1773669000561,370,-298,0,степ
1773669000562,370,-261,0,степ
1773669000562,370,-234,0,степ
1773669000563,370,-244,0,степ
1773669000564,370,-229,0,степ
1773669000565,370,-204,0,степ
1773669000566,370,-209,0,степ
1773669000567,370,-214,0,степ
1773669000568,370,-184,0,степ
1773669000568,370,-162,0,степ
1773669000569,370,-167,0,степ
1773669000570,370,-162,0,степ
1773669000571,370,-143,0,степ
1773669000572,370,-125,0,степ
1773669000573,370,-113,0,степ
1773669000574,370,-96,0,степ
1773669000575,370,-69,0,степ
1773669000576,370,-51,0,степ
1773669000578,370,-44,0,степ
1773669000579,370,-44,0,степ
1773669000580,370,-32,0,степ
1773669000581,370,-17,0,степ
1773669000582,370,-24,0,степ
1773669000584,370,-49,0,степ
1773669000585,370,-71,0,степ
1773669000586,370,-91,0,степ
1773669000586,370,-113,0,степ
1773669000587,370,-140,0,степ
1773669000588,370,-160,0,степ
1773669000589,370,-175,0,степ
1773669000590,370,-184,0,степ
1773669000591,370,-180,0,степ
1773669000592,370,-170,0,степ
1773669000593,370,-170,0,степ
1773669000594,370,-172,0,степ
1773669000595,370,-160,0,степ
1773669000596,370,-165,0,степ
1773669000597,370,-172,0,степ
1773669000599,373,-172,0,степ
1773669000690,377,-172,0,степ
1773669000791,430,-172,0,степ
1773669000887,344,-172,0,степ
1773669000986,363,-172,0,степ
1773669001085,358,-172,0,степ
1773669001204,358,-162,0,степ
1773669001205,358,-160,0,степ
1773669001206,358,-165,0,степ
1773669001207,358,-155,0,степ
1773669001208,358,-157,0,степ
1773669001209,358,-170,0,степ
1773669001210,358,-155,0,степ
1773669001211,358,-130,0,степ
1773669001212,358,-125,0,степ
1773669001212,358,-120,0,степ
1773669001213,358,-110,0,степ
1773669001214,358,-108,0,степ
1773669001215,358,-110,0,степ
1773669001216,358,-113,0,степ
1773669001217,358,-101,0,степ
1773669001218,358,-101,0,степ
1773669001219,358,-115,0,степ
1773669001220,358,-103,0,степ
1773669001221,358,-83,0,степ
1773669001223,358,-106,0,степ
1773669001224,358,-172,0,степ
1773669001224,358,-143,0,степ
1773669001225,358,147,0,степ
1773669001226,358,574,0,степ
1773669001227,358,781,0,степ
1773669001228,358,540,0,степ
1773669001228,358,44,0,степ
1773669001229,358,-202,0,степ
1773669001230,358,-140,0,степ
1773669001231,358,-150,0,степ
1773669001232,358,-214,0,степ
1773669001232,358,-167,0,степ
1773669001233,358,-140,0,степ
1773669001234,358,-172,0,степ
1773669001235,358,-143,0,степ
1773669001236,358,-91,0,степ
1773669001237,358,-98,0,степ
1773669001237,358,-110,0,степ
1773669001241,358,-88,0,степ
1773669001242,358,-76,0,степ
1773669001243,358,-78,0,степ
1773669001243,358,-59,0,степ
1773669001244,358,-41,0,степ
1773669001245,358,-46,0,степ
1773669001246,358,-41,0,степ
1773669001247,358,-17,0,степ
1773669001248,358,7,0,степ
1773669001248,358,27,0,степ
1773669001249,358,39,0,степ
1773669001250,358,54,0,степ
1773669001251,358,66,0,степ
1773669001252,358,71,0,степ
1773669001252,358,78,0,степ
1773669001253,358,69,0,степ
1773669001254,358,29,0,степ
1773669001255,358,-22,0,степ
1773669001256,358,-56,0,степ
1773669001257,358,-66,0,степ
1773669001258,358,-51,0,степ
1773669001259,358,-39,0,степ
1773669001259,358,-64,0,степ
1773669001260,358,-101,0,степ
1773669001261,358,-106,0,степ
1773669001261,358,-91,0,степ
1773669001262,358,-103,0,степ
1773669001263,358,-135,0,степ
1773669001264,358,-145,0,степ
1773669001264,358,-133,0,степ
1773669001265,358,-150,0,степ
1773669001266,358,-170,0,степ
1773669001267,358,-150,0,степ
1773669001267,358,-157,0,степ
1773669001268,358,-204,0,степ
1773669001269,361,-204,0,степ
1773669001306,361,-204,0,степ
1773669001382,365,-204,0,степ
1773669001504,360,-204,0,степ
1773669001609,360,-224,0,степ
1773669001610,360,-212,0,степ
1773669001611,360,-197,0,степ
1773669001611,360,-199,0,степ
1773669001612,360,-216,0,степ
1773669001613,360,-239,0,степ
1773669001614,360,-251,0,степ
1773669001615,360,-251,0,степ
1773669001616,360,-246,0,степ
1773669001617,360,-253,0,степ
1773669001618,360,-261,0,степ
1773669001619,360,-258,0,степ
1773669001620,360,-244,0,степ
1773669001621,360,-244,0,степ
1773669001622,360,-313,0,степ
1773669001623,360,-362,0,степ
1773669001624,360,-184,0,степ
1773669001624,360,226,0,степ
1773669001625,360,574,0,степ
1773669001626,360,535,0,степ
1773669001628,360,91,0,степ
1773669001630,360,-320,0,степ
1773669001631,360,-352,0,степ
1773669001632,360,-278,0,степ
1773669001633,360,-342,0,степ
1773669001634,360,-367,0,степ
1773669001635,360,-315,0,степ
1773669001635,360,-286,0,степ
1773669001636,360,-271,0,степ
1773669001638,360,-241,0,степ
1773669001639,360,-221,0,степ
1773669001640,360,-209,0,степ
1773669001641,360,-187,0,степ
1773669001642,360,-167,0,степ
1773669001643,360,-145,0,степ
1773669001643,360,-120,0,степ
1773669001644,360,-115,0,степ
1773669001645,360,-120,0,степ
1773669001651,360,-96,0,степ
1773669001652,360,-73,0,степ
1773669001653,360,-71,0,степ
1773669001654,360,-51,0,степ
1773669001655,360,-27,0,степ
1773669001656,360,-22,0,степ
1773669001656,360,-27,0,степ
1773669001657,360,-27,0,степ
1773669001658,360,-19,0,степ
1773669001659,360,-17,0,степ
1773669001660,360,-39,0,степ
1773669001660,360,-78,0,степ
1773669001661,360,-106,0,степ
1773669001662,360,-138,0,степ
1773669001662,360,-175,0,степ
1773669001663,360,-197,0,степ
1773669001664,360,-199,0,степ
1773669001665,360,-214,0,степ
1773669001665,360,-229,0,степ
1773669001666,360,-224,0,степ
1773669001667,360,-209,0,степ
1773669001668,360,-199,0,степ
1773669001668,360,-197,0,степ
1773669001669,360,-194,0,степ
1773669001670,360,-199,0,степ
1773669001671,360,-204,0,степ
1773669001672,360,-202,0,степ
1773669001672,360,-192,0,степ
1773669001673,360,-197,0,степ
1773669001674,360,-197,0,степ
1773669001675,360,-170,0,степ
1773669001675,360,-157,0,степ
1773669001676,360,-167,0,степ
1773669001677,360,-162,0,степ
1773669001678,360,-160,0,степ
1773669001679,366,-160,0,степ
1773669001721,360,-160,0,степ
1773669001796,361,-160,0,степ
1773669001940,361,-160,0,степ
1773669001990,362,-160,0,степ
1773669002091,362,-160,0,степ
1773669002156,362,-167,0,степ
1773669002157,362,-167,0,степ
1773669002159,362,-165,0,степ
1773669002160,362,-157,0,степ
1773669002161,362,-143,0,степ
1773669002162,362,-145,0,степ
1773669002163,362,-175,0,степ
1773669002164,362,-231,0,степ
1773669002165,362,-278,0,степ
1773669002166,362,-184,0,степ
1773669002167,362,147,0,степ
1773669002168,362,559,0,степ
1773669002170,362,683,0,степ
1773669002171,362,335,0,степ
1773669002172,362,-115,0,степ
1773669002173,362,-226,0,степ
1773669002174,362,-165,0,степ
1773669002175,362,-219,0,степ
1773669002177,362,-263,0,степ
1773669002178,362,-216,0,степ
1773669002179,362,-194,0,степ
1773669002180,362,-204,0,степ
1773669002181,362,-187,0,степ
1773669002182,362,-170,0,степ
1773669002183,362,-160,0,степ
1773669002184,362,-140,0,степ
1773669002185,362,-130,0,степ
1773669002186,362,-125,0,степ
1773669002187,362,-115,0,степ
1773669002188,362,-110,0,степ
1773669002189,362,-96,0,степ
1773669002191,362,-64,0,степ
1773669002192,362,-36,0,степ
1773669002193,362,-22,0,степ
1773669002194,362,-4,0,степ
1773669002195,362,17,0,степ
1773669002196,362,36,0,степ
1773669002197,362,44,0,степ
1773669002198,362,41,0,степ
1773669002199,362,46,0,степ
1773669002200,362,49,0,степ
1773669002201,362,27,0,степ
1773669002203,362,2,0,степ
1773669002204,362,-19,0,степ
1773669002205,362,-64,0,степ
1773669002205,362,-98,0,степ
1773669002206,362,-106,0,степ
1773669002208,362,-113,0,степ
1773669002209,362,-128,0,степ
1773669002210,362,-130,0,степ
1773669002211,362,-120,0,степ
1773669002212,362,-115,0,степ
1773669002213,362,-108,0,степ
1773669002214,362,-91,0,степ
1773669002215,362,-76,0,степ
1773669002216,362,-76,0,степ
1773669002217,362,-81,0,степ
1773669002218,362,-83,0,степ
1773669002219,362,-69,0,степ
1773669002220,362,-49,0,степ
1773669002221,362,-51,0,степ
1773669002222,362,-61,0,степ
1773669002223,362,-44,0,степ
1773669002224,362,-22,0,степ
1773669002225,362,-29,0,степ
1773669002226,362,-51,0,степ
1773669002227,362,-49,0,степ
1773669002228,362,-44,0,степ
1773669002230,362,-44,0,степ
1773669002231,362,-41,0,степ
1773669002232,362,-56,0,степ
1773669002233,362,-66,0,степ
1773669002234,362,-73,0,степ
1773669002236,360,-73,0,степ
1773669002290,359,-73,0,степ
1773669002389,360,-73,0,степ
1773669002491,357,-73,0,степ
1773669002590,356,-73,0,степ
1773669002688,358,-73,0,степ
1773669002734,358,-140,0,степ
1773669002735,358,-192,0,степ
1773669002736,358,-24,0,степ
1773669002738,358,411,0,степ
1773669002739,358,833,0,степ
1773669002740,358,789,0,степ
1773669002741,358,295,0,степ
1773669002742,358,-83,0,степ
1773669002743,358,-108,0,степ
1773669002744,358,-83,0,степ
1773669002745,358,-143,0,степ
1773669002746,358,-167,0,степ
1773669002746,358,-152,0,степ
1773669002747,358,-140,0,степ
1773669002748,358,-135,0,степ
1773669002749,358,-130,0,степ
1773669002750,358,-120,0,степ
1773669002751,358,-108,0,степ
1773669002751,358,-98,0,степ
1773669002752,358,-103,0,степ
1773669002753,358,-108,0,степ
1773669002754,358,-91,0,степ
1773669002755,358,-69,0,степ
1773669002757,358,-64,0,степ
1773669002758,358,-44,0,степ
1773669002759,358,-22,0,степ
1773669002760,358,-22,0,степ
1773669002761,358,0,0,степ
1773669002761,358,27,0,степ
1773669002762,358,27,0,степ
1773669002763,358,36,0,степ
1773669002764,358,41,0,степ
1773669002765,358,17,0,степ
1773669002766,358,-9,0,степ
1773669002767,358,-9,0,степ
1773669002768,358,-27,0,степ
1773669002769,358,-78,0,степ
1773669002769,358,-108,0,степ
1773669002770,358,-130,0,степ
1773669002771,358,-170,0,степ
1773669002772,358,-180,0,степ
1773669002773,358,-160,0,степ
1773669002774,358,-162,0,степ
1773669002775,358,-172,0,степ
1773669002776,358,-170,0,степ
1773669002777,358,-157,0,степ
1773669002777,358,-140,0,степ
1773669002778,358,-143,0,степ
1773669002779,358,-150,0,степ
1773669002780,358,-138,0,степ
1773669002781,358,-140,0,степ
1773669002781,358,-143,0,степ
1773669002782,358,-130,0,степ
1773669002783,358,-128,0,степ
1773669002784,358,-123,0,степ
1773669002785,358,-103,0,степ
1773669002786,358,-93,0,степ
1773669002787,358,-96,0,степ
1773669002788,358,-86,0,степ
1773669002789,358,-81,0,степ
1773669002790,358,-93,0,степ
1773669002791,358,-96,0,степ
1773669002792,358,-78,0,степ
1773669002793,358,-83,0,степ
1773669002794,358,-93,0,степ
1773669002794,358,-93,0,степ
1773669002795,358,-160,0,степ
1773669002796,358,-261,0,степ
1773669002797,358,-172,0,степ
1773669002798,358,234,0,степ
1773669002799,358,747,0,степ
1773669002799,358,895,0,степ
1773669002800,358,495,0,степ
1773669002801,357,495,0,степ
1773669002891,379,495,0,степ
1773669002989,348,495,0,степ
1773669003103,347,495,0,степ
1773669003202,347,495,0,степ
1773669003302,345,495,0,степ
1773669003400,346,495,0,степ
1773669003452,346,-27,0,степ
1773669003454,346,-172,0,степ
1773669003455,346,-106,0,степ
1773669003456,346,-152,0,степ
1773669003458,346,-202,0,степ
1773669003459,346,-172,0,степ
1773669003460,346,-180,0,степ
1773669003461,346,-189,0,степ
1773669003461,346,-138,0,степ
1773669003462,346,-96,0,степ
1773669003463,346,-110,0,степ
1773669003464,346,-123,0,степ
1773669003464,346,-96,0,степ
1773669003465,346,-36,0,степ
1773669003466,346,-2,0,степ
1773669003467,346,-32,0,степ
1773669003468,346,-73,0,степ
1773669003468,346,-103,0,степ
1773669003469,346,-130,0,степ
1773669003470,346,-118,0,степ
1773669003471,346,-83,0,степ
1773669003472,346,-81,0,степ
1773669003473,346,-101,0,степ
1773669003474,346,-88,0,степ
1773669003475,346,-32,0,степ
1773669003476,346,-14,0,степ
1773669003477,346,-69,0,степ
1773669003478,346,-101,0,степ
1773669003479,346,-115,0,степ
1773669003479,346,-177,0,степ
1773669003480,346,-221,0,степ
1773669003481,346,-216,0,степ
1773669003482,346,-202,0,степ
1773669003483,346,-199,0,степ
1773669003483,346,-224,0,степ
1773669003484,346,-251,0,степ
1773669003485,346,-231,0,степ
1773669003486,346,-194,0,степ
1773669003487,346,-197,0,степ
1773669003488,346,-184,0,степ
1773669003489,346,-152,0,степ
1773669003490,346,-152,0,степ
1773669003490,346,-170,0,степ
1773669003491,346,-170,0,степ
1773669003492,346,-170,0,степ
1773669003494,346,-170,0,степ
1773669003495,346,-160,0,степ
1773669003496,346,-160,0,степ
1773669003497,346,-167,0,степ
1773669003497,346,-135,0,степ
1773669003498,346,-110,0,степ
1773669003499,346,-125,0,степ
1773669003500,346,-113,0,степ
1773669003501,346,-93,0,степ
1773669003502,346,-106,0,степ
1773669003503,346,-110,0,степ
1773669003504,346,-118,0,степ
1773669003505,346,-125,0,степ
1773669003506,346,-113,0,степ
1773669003507,346,-120,0,степ
1773669003507,346,-177,0,степ
1773669003508,346,-258,0,степ
1773669003509,346,-219,0,степ
1773669003510,346,103,0,степ
1773669003511,346,596,0,степ
1773669003512,346,850,0,степ
1773669003513,346,557,0,степ
1773669003514,346,27,0,степ
1773669003515,346,-187,0,степ
1773669003515,346,-133,0,степ
1773669003516,346,-155,0,степ
1773669003517,346,-209,0,степ
1773669003518,346,-187,0,степ
1773669003519,346,-187,0,степ
1773669003601,345,-187,0,степ
1773669003703,345,-187,0,степ
1773669003791,346,-187,0,степ
1773669003889,346,-187,0,степ
1773669003903,346,-162,0,степ
1773669003904,346,-155,0,степ
1773669003905,346,-152,0,степ
1773669003906,346,-155,0,степ
1773669003907,346,-133,0,степ
1773669003908,346,-108,0,степ
1773669003908,346,-120,0,степ
1773669003909,346,-138,0,степ
1773669003910,346,-128,0,степ
1773669003911,346,-98,0,степ
1773669003912,346,-71,0,степ
1773669003912,346,-64,0,степ
1773669003913,346,-69,0,степ
1773669003914,346,-66,0,степ
1773669003915,346,-54,0,степ
1773669003916,346,-36,0,степ
1773669003916,346,-27,0,степ
1773669003917,346,-22,0,степ
1773669003918,346,-19,0,степ
1773669003919,346,-29,0,степ
1773669003920,346,-34,0,степ
1773669003921,346,-34,0,степ
1773669003923,346,-56,0,степ
1773669003924,346,-76,0,степ
1773669003925,346,-91,0,степ
1773669003926,346,-128,0,степ
1773669003927,346,-165,0,степ
1773669003928,346,-187,0,степ
1773669003929,346,-197,0,степ
1773669003929,346,-192,0,степ
1773669003930,346,-182,0,степ
1773669003931,346,-182,0,степ
1773669003932,346,-189,0,степ
1773669003933,346,-184,0,степ
1773669003934,346,-182,0,степ
1773669003935,346,-189,0,степ
1773669003937,346,-197,0,степ
1773669003938,346,-189,0,степ
1773669003939,346,-182,0,степ
1773669003940,346,-180,0,степ
1773669003941,346,-175,0,степ
1773669003942,346,-187,0,степ
1773669003943,346,-207,0,степ
1773669003943,346,-189,0,степ
1773669003944,346,-160,0,степ
1773669003945,346,-160,0,степ
1773669003946,346,-170,0,степ
1773669003946,346,-160,0,степ
1773669003948,346,-150,0,степ
1773669003948,346,-157,0,степ
1773669003950,346,-165,0,степ
1773669003950,346,-152,0,степ
1773669003951,346,-150,0,степ
1773669003952,346,-152,0,степ
1773669003953,346,-175,0,степ
1773669003954,346,-251,0,степ
1773669003955,346,-268,0,степ
1773669003956,346,-32,0,степ
1773669003957,346,426,0,степ
1773669003957,346,766,0,степ
1773669003958,346,655,0,степ
1773669003959,346,165,0,степ
1773669003960,346,-207,0,степ
1773669003961,346,-229,0,степ
1773669003961,346,-202,0,степ
1773669003962,346,-258,0,степ
1773669003963,346,-258,0,степ
1773669003963,346,-231,0,степ
1773669003964,346,-234,0,степ
1773669003965,346,-229,0,степ
1773669003966,346,-214,0,степ
1773669003967,346,-204,0,степ
1773669003968,346,-202,0,степ
1773669003988,346,-202,0,степ
1773669004090,347,-202,0,степ
1773669004182,346,-202,0,степ
1773669004307,345,-202,0,степ
1773669004382,347,-202,0,степ
1773669004398,347,-202,0,степ
1773669004400,347,-187,0,степ
1773669004401,347,-172,0,степ
1773669004401,347,-167,0,степ
1773669004402,347,-165,0,степ
1773669004403,347,-150,0,степ
1773669004404,347,-125,0,степ
1773669004405,347,-115,0,степ
1773669004406,347,-110,0,степ
1773669004407,347,-96,0,степ
1773669004408,347,-71,0,степ
1773669004409,347,-59,0,степ
1773669004410,347,-64,0,степ
1773669004411,347,-61,0,степ
1773669004412,347,-54,0,степ
1773669004413,347,-61,0,степ
1773669004414,347,-78,0,степ
1773669004415,347,-91,0,степ
1773669004416,347,-110,0,степ
1773669004417,347,-138,0,степ
1773669004418,347,-160,0,степ
1773669004418,347,-170,0,степ
1773669004419,347,-170,0,степ
1773669004420,347,-170,0,степ
1773669004421,347,-175,0,степ
1773669004422,347,-180,0,степ
1773669004423,347,-182,0,степ
1773669004424,347,-177,0,степ
1773669004425,347,-167,0,степ
1773669004426,347,-162,0,степ
1773669004427,347,-165,0,степ
1773669004427,347,-170,0,степ
1773669004428,347,-172,0,степ
1773669004429,347,-175,0,степ
1773669004430,347,-182,0,степ
1773669004431,347,-184,0,степ
1773669004432,347,-177,0,степ
1773669004433,347,-172,0,степ
1773669004433,347,-167,0,степ
1773669004434,347,-155,0,степ
1773669004435,347,-155,0,степ
1773669004436,347,-165,0,степ
1773669004437,347,-167,0,степ
1773669004438,347,-155,0,степ
1773669004439,347,-145,0,степ
1773669004440,347,-147,0,степ
1773669004441,347,-152,0,степ
1773669004442,347,-150,0,степ
1773669004442,347,-155,0,степ
1773669004443,347,-209,0,степ
1773669004444,347,-273,0,степ
1773669004445,347,-162,0,степ
1773669004446,347,209,0,степ
1773669004446,347,636,0,степ
1773669004447,347,766,0,степ
1773669004448,347,441,0,степ
1773669004449,347,-39,0,степ
1773669004450,347,-216,0,степ
1773669004451,347,-172,0,степ
1773669004452,347,-202,0,степ
1773669004454,347,-231,0,степ
1773669004455,347,-199,0,степ
1773669004456,347,-184,0,степ
1773669004457,347,-180,0,степ
1773669004458,347,-162,0,степ
1773669004459,347,-162,0,степ
1773669004460,347,-155,0,степ
1773669004460,347,-130,0,степ
1773669004461,347,-128,0,степ
1773669004462,347,-143,0,степ
1773669004463,347,-138,0,степ
1773669004464,347,-123,0,степ
1773669004465,347,-115,0,степ
1773669004502,347,-115,0,степ
1773669004603,345,-115,0,степ
1773669004725,347,-115,0,степ
1773669004802,357,-115,0,степ
1773669004893,357,-115,0,степ
1773669004993,361,-115,0,степ
1773669005029,361,-103,0,степ
1773669005030,361,-88,0,степ
1773669005031,361,-76,0,степ
1773669005032,361,-64,0,степ
1773669005033,361,-44,0,степ
1773669005034,361,-24,0,степ
1773669005035,361,-14,0,степ
1773669005036,361,-19,0,степ
1773669005037,361,-29,0,степ
1773669005038,361,-34,0,степ
1773669005039,361,-39,0,степ
1773669005040,361,-59,0,степ
1773669005041,361,-76,0,степ
1773669005041,361,-78,0,степ
1773669005042,361,-86,0,степ
1773669005043,361,-106,0,степ
1773669005044,361,-125,0,степ
1773669005045,361,-133,0,степ
1773669005046,361,-138,0,степ
1773669005046,361,-145,0,степ
1773669005047,361,-140,0,степ
1773669005048,361,-125,0,степ
1773669005049,361,-118,0,степ
1773669005050,361,-115,0,степ
1773669005050,361,-118,0,степ
1773669005051,361,-118,0,степ
1773669005051,361,-118,0,степ
1773669005051,361,-125,0,степ
1773669005051,361,-130,0,степ
1773669005054,361,-115,0,степ
1773669005054,361,-113,0,степ
1773669005057,361,-106,0,степ
1773669005057,361,-73,0,степ
1773669005057,361,-76,0,степ
1773669005057,361,-106,0,степ
1773669005057,361,-101,0,степ
1773669005057,361,-88,0,степ
1773669005057,361,-98,0,степ
1773669005057,361,-88,0,степ
1773669005057,361,-81,0,степ
1773669005057,361,-76,0,степ
1773669005057,361,-54,0,степ
1773669005057,361,-78,0,степ
1773669005057,361,-135,0,степ
1773669005057,361,-180,0,степ
1773669005057,361,-160,0,степ
1773669005071,361,69,0,степ
1773669005071,361,507,0,степ
1773669005071,361,828,0,степ
1773669005071,361,685,0,степ
1773669005071,361,189,0,степ
1773669005071,361,-152,0,степ
1773669005071,361,-152,0,степ
1773669005071,361,-125,0,степ
1773669005071,361,-187,0,степ
1773669005079,361,-187,0,степ
1773669005079,361,-157,0,степ
1773669005079,361,-150,0,степ
1773669005079,361,-145,0,степ
1773669005079,361,-150,0,степ
1773669005079,361,-143,0,степ
1773669005079,361,-120,0,степ
1773669005079,361,-120,0,степ
1773669005079,361,-88,0,степ
1773669005087,361,-19,0,степ
1773669005087,361,-24,0,степ
1773669005087,361,-78,0,степ
1773669005087,361,-61,0,степ
1773669005087,361,-24,0,степ
1773669005087,361,-41,0,степ
1773669005087,361,-66,0,степ
1773669005087,361,-71,0,степ
1773669005087,361,-71,0,степ
1773669005095,371,-71,0,степ
1773669005187,367,-71,0,степ
1773669005286,362,-71,0,степ
1773669005402,361,-71,0,степ
1773669005487,365,-71,0,степ
1773669005522,365,-59,0,степ
1773669005522,365,-39,0,степ
1773669005522,365,-41,0,степ
1773669005522,365,-59,0,степ
1773669005522,365,-86,0,степ
1773669005522,365,-118,0,степ
1773669005522,365,-143,0,степ
1773669005522,365,-170,0,степ
1773669005522,365,-204,0,степ
1773669005522,365,-236,0,степ
1773669005522,365,-281,0,степ
1773669005522,365,-313,0,степ
1773669005522,365,-300,0,степ
1773669005522,365,-261,0,степ
1773669005522,365,-229,0,степ
1773669005537,365,-224,0,степ
1773669005537,365,-241,0,степ
1773669005537,365,-229,0,степ
1773669005537,365,-189,0,степ
1773669005537,365,-180,0,степ
1773669005537,365,-182,0,степ
1773669005537,365,-170,0,степ
1773669005537,365,-162,0,степ
1773669005537,365,-172,0,степ
1773669005545,365,-160,0,степ
1773669005545,365,-128,0,степ
1773669005545,365,-123,0,степ
1773669005545,365,-123,0,степ
1773669005545,365,-98,0,степ
1773669005545,365,-101,0,степ
1773669005545,365,-135,0,степ
1773669005545,365,-150,0,степ
1773669005545,365,-138,0,степ
1773669005545,365,-128,0,степ
1773669005553,365,-147,0,степ
1773669005554,365,-160,0,степ
1773669005554,365,-145,0,степ
1773669005556,365,-194,0,степ
1773669005556,365,-246,0,степ
1773669005556,365,-39,0,степ
1773669005556,365,406,0,степ
1773669005556,365,687,0,степ
1773669005556,365,488,0,степ
1773669005556,365,17,0,степ
1773669005556,365,-226,0,степ
1773669005556,365,-187,0,степ
1773669005556,365,-204,0,степ
1773669005556,365,-266,0,степ
1773669005556,365,-234,0,степ
1773669005556,365,-207,0,степ
1773669005556,365,-229,0,степ
1773669005556,365,-224,0,степ
1773669005556,365,-197,0,степ
1773669005556,365,-202,0,степ
1773669005571,365,-214,0,степ
1773669005573,365,-199,0,степ
1773669005574,365,-180,0,степ
1773669005575,365,-182,0,степ
1773669005576,365,-182,0,степ
1773669005577,365,-165,0,степ
1773669005578,365,-152,0,степ
1773669005580,365,-150,0,степ
1773669005580,365,-123,0,степ
1773669005581,365,-93,0,степ
1773669005581,365,-86,0,степ
1773669005581,365,-86,0,степ
1773669005581,365,-76,0,степ
1773669005581,365,-66,0,степ
1773669005581,365,-64,0,степ
1773669005581,365,-51,0,степ
1773669005587,365,-51,0,степ
1773669005587,365,-86,0,степ
1773669005587,365,-113,0,степ
1773669005605,366,-113,0,степ
1773669005678,349,-113,0,степ
1773669005778,348,-113,0,степ
1773669005901,348,-113,0,степ
1773669005987,349,-113,0,степ
1773669006056,349,-128,0,степ
1773669006065,349,-157,0,степ
1773669006066,349,-202,0,степ
1773669006066,349,-224,0,степ
1773669006066,349,-229,0,степ
1773669006066,349,-239,0,степ
1773669006070,349,-241,0,степ
1773669006070,349,-236,0,степ
1773669006070,349,-236,0,степ
1773669006070,349,-241,0,степ
1773669006070,349,-251,0,степ
1773669006070,349,-249,0,степ
1773669006070,349,-244,0,степ
1773669006070,349,-253,0,степ
1773669006070,349,-258,0,степ
1773669006070,349,-251,0,степ
1773669006078,349,-241,0,степ
1773669006078,349,-239,0,степ
1773669006078,349,-234,0,степ
1773669006078,349,-204,0,степ
1773669006078,349,-197,0,степ
1773669006078,349,-224,0,степ
1773669006078,349,-231,0,степ
1773669006078,349,-229,0,степ
1773669006078,349,-226,0,степ
1773669006086,349,-216,0,степ
1773669006086,349,-221,0,степ
1773669006086,349,-219,0,степ
1773669006086,349,-204,0,степ
1773669006086,349,-231,0,степ
1773669006086,349,-303,0,степ
1773669006086,349,-293,0,степ
1773669006086,349,-46,0,степ
1773669006086,349,404,0,степ
1773669006094,349,717,0,степ
1773669006094,349,552,0,степ
1773669006094,349,36,0,степ
1773669006094,349,-293,0,степ
1773669006094,349,-278,0,степ
1773669006094,349,-253,0,степ
1773669006094,349,-313,0,степ
1773669006094,349,-300,0,степ
1773669006094,349,-271,0,степ
1773669006102,349,-288,0,степ
1773669006104,349,-283,0,степ
1773669006104,349,-249,0,степ
1773669006104,349,-236,0,степ
1773669006104,349,-234,0,степ
1773669006104,349,-207,0,степ
1773669006104,349,-192,0,степ
1773669006104,349,-216,0,степ
1773669006104,349,-219,0,степ
1773669006104,349,-192,0,степ
1773669006104,349,-189,0,степ
1773669006104,349,-182,0,степ
1773669006104,349,-143,0,степ
1773669006104,349,-130,0,степ
1773669006104,349,-135,0,степ
1773669006104,349,-106,0,степ
1773669006104,349,-71,0,степ
1773669006104,349,-76,0,степ
1773669006104,349,-76,0,степ
1773669006104,349,-59,0,степ
1773669006119,349,-71,0,степ
1773669006119,349,-96,0,степ
1773669006119,349,-113,0,степ
1773669006119,349,-133,0,степ
1773669006119,349,-152,0,степ
1773669006119,349,-160,0,степ
1773669006119,349,-167,0,степ
1773669006119,349,-177,0,степ
1773669006119,349,-182,0,степ
1773669006119,349,-170,0,степ
1773669006119,348,-170,0,степ
1773669006195,349,-170,0,степ
1773669006287,349,-170,0,степ
1773669006382,349,-170,0,степ
1773669006486,350,-170,0,степ
1773669006585,349,-170,0,степ
1773669006601,349,-162,0,степ
1773669006603,349,-165,0,степ
1773669006603,349,-165,0,степ
1773669006603,349,-152,0,степ
1773669006603,349,-160,0,степ
1773669006603,349,-177,0,степ
1773669006603,349,-177,0,степ
1773669006603,349,-167,0,степ
1773669006603,349,-162,0,степ
1773669006611,349,-147,0,степ
1773669006611,349,-152,0,степ
1773669006611,349,-167,0,степ
1773669006611,349,-145,0,степ
1773669006611,349,-108,0,степ
1773669006611,349,-103,0,степ
1773669006611,349,-125,0,степ
1773669006611,349,-162,0,степ
1773669006611,349,-177,0,степ
1773669006619,349,-147,0,степ
1773669006620,349,-123,0,степ
1773669006620,349,-128,0,степ
1773669006622,349,-128,0,степ
1773669006622,349,-155,0,степ
1773669006622,349,-239,0,степ
1773669006622,349,-209,0,степ
1773669006622,349,73,0,степ
1773669006622,349,473,0,степ
1773669006622,349,734,0,степ
1773669006622,349,596,0,степ
1773669006622,349,103,0,степ
1773669006622,349,-239,0,степ
1773669006622,349,-216,0,степ
1773669006622,349,-182,0,степ
1773669006622,349,-241,0,степ
1773669006622,349,-224,0,степ
1773669006622,349,-182,0,степ
1773669006622,349,-192,0,степ
1773669006622,349,-177,0,степ
1773669006638,349,-155,0,степ
1773669006638,349,-170,0,степ
1773669006638,349,-177,0,степ
1773669006638,349,-157,0,степ
1773669006638,349,-143,0,степ
1773669006638,349,-140,0,степ
1773669006638,349,-138,0,степ
1773669006638,349,-143,0,степ
1773669006646,349,-135,0,степ
1773669006646,349,-86,0,степ
1773669006646,349,-51,0,степ
1773669006646,349,-59,0,степ
1773669006646,349,-51,0,степ
1773669006646,349,-41,0,степ
1773669006646,349,-39,0,степ
1773669006646,349,-29,0,степ
1773669006654,349,-32,0,степ
1773669006654,349,-27,0,степ
1773669006654,349,-9,0,степ
1773669006654,349,-44,0,степ
1773669006654,349,-86,0,степ
1773669006654,349,-88,0,степ
1773669006654,349,-110,0,степ
1773669006654,349,-145,0,степ
1773669006654,349,-145,0,степ
1773669006654,349,-143,0,степ
1773669006662,349,-150,0,степ
1773669006662,349,-162,0,степ
1773669006662,349,-143,0,степ
1773669006662,349,-113,0,степ
1773669006662,349,-150,0,степ
1773669006662,349,-189,0,степ
1773669006662,349,-162,0,степ
1773669006662,349,-155,0,степ
1773669006670,349,-177,0,степ
1773669006729,347,-177,0,степ
1773669006787,348,-177,0,степ
1773669006887,348,-177,0,степ
1773669006985,351,-177,0,степ
1773669007094,333,-177,0,степ
1773669007185,341,-177,0,степ
1773669007273,341,-160,0,степ
1773669007273,341,-138,0,степ
1773669007273,341,-138,0,степ
1773669007273,341,-128,0,степ
1773669007273,341,-128,0,степ
1773669007273,341,-145,0,степ
1773669007273,341,-130,0,степ
1773669007273,341,-96,0,степ
1773669007273,341,-118,0,степ
1773669007273,341,-160,0,степ
1773669007273,341,-143,0,степ
1773669007288,341,-115,0,степ
1773669007291,341,-150,0,степ
1773669007291,341,-160,0,степ
1773669007291,341,-130,0,степ
1773669007291,341,-180,0,степ
1773669007291,341,-278,0,степ
1773669007291,341,-167,0,степ
1773669007291,341,234,0,степ
1773669007291,341,655,0,степ
1773669007291,341,742,0,степ
1773669007291,341,374,0,степ
1773669007291,341,-113,0,степ
1773669007291,341,-258,0,степ
1773669007291,341,-177,0,степ
1773669007291,341,-207,0,степ
1773669007291,341,-244,0,степ
1773669007303,341,-180,0,степ
1773669007303,341,-140,0,степ
1773669007303,341,-143,0,степ
1773669007303,341,-160,0,степ
1773669007303,341,-197,0,степ
1773669007303,341,-194,0,степ
1773669007303,341,-147,0,степ
1773669007303,341,-110,0,степ
1773669007311,341,-91,0,степ
1773669007311,341,-83,0,степ
1773669007311,341,-73,0,степ
1773669007311,341,-56,0,степ
1773669007311,341,-36,0,степ
1773669007311,341,-12,0,степ
1773669007311,341,4,0,степ
1773669007311,341,0,0,степ
1773669007311,341,-19,0,степ
1773669007311,341,-22,0,степ
1773669007320,341,-4,0,степ
1773669007320,341,12,0,степ
1773669007320,341,29,0,степ
1773669007320,341,41,0,степ
1773669007320,341,27,0,степ
1773669007320,341,-29,0,степ
1773669007320,341,-73,0,степ
1773669007320,341,-56,0,степ
1773669007320,341,-64,0,степ
1773669007320,341,-108,0,степ
1773669007328,341,-110,0,степ
1773669007328,341,-106,0,степ
1773669007328,341,-118,0,степ
1773669007328,341,-110,0,степ
1773669007328,341,-101,0,степ
1773669007328,341,-103,0,степ
1773669007328,341,-93,0,степ
1773669007328,341,-86,0,степ
1773669007328,341,-103,0,степ
1773669007336,341,-115,0,степ
1773669007336,341,-83,0,степ
1773669007336,341,-56,0,степ
1773669007336,341,-96,0,степ
1773669007336,341,-115,0,степ
1773669007336,341,-71,0,степ
1773669007336,341,-61,0,степ
1773669007336,341,-66,0,степ
1773669007336,341,-59,0,степ
1773669007344,342,-59,0,степ
1773669007425,345,-59,0,степ
1773669007491,344,-59,0,степ
1773669007585,344,-59,0,степ
1773669007687,347,-59,0,степ
1773669007769,347,-93,0,степ
1773669007769,347,-115,0,степ
1773669007775,347,-91,0,степ
1773669007775,347,-108,0,степ
1773669007775,347,-150,0,степ
1773669007775,347,-133,0,степ
1773669007775,347,-128,0,степ
1773669007775,347,-236,0,степ
1773669007775,347,-283,0,степ
1773669007775,347,-41,0,степ
1773669007775,347,414,0,степ
1773669007775,347,727,0,степ
1773669007775,347,567,0,степ
1773669007775,347,83,0,степ
1773669007775,347,-192,0,степ
1773669007775,347,-155,0,степ
1773669007787,347,-138,0,степ
1773669007788,347,-202,0,степ
1773669007788,347,-207,0,степ
1773669007788,347,-175,0,степ
1773669007788,347,-165,0,степ
1773669007791,347,-150,0,степ
1773669007791,347,-125,0,степ
1773669007791,347,-125,0,степ
1773669007791,347,-138,0,степ
1773669007791,347,-113,0,степ
1773669007791,347,-71,0,степ
1773669007791,347,-66,0,степ
1773669007791,347,-78,0,степ
1773669007791,347,-71,0,степ
1773669007791,347,-56,0,степ
1773669007791,347,-36,0,степ
1773669007805,347,-14,0,степ
1773669007805,347,7,0,степ
1773669007805,347,24,0,степ
1773669007805,347,39,0,степ
1773669007805,347,51,0,степ
1773669007805,347,54,0,степ
1773669007805,347,49,0,степ
1773669007805,347,49,0,степ
1773669007805,347,56,0,степ
1773669007813,347,49,0,степ
1773669007813,347,9,0,степ
1773669007813,347,-36,0,степ
1773669007813,347,-73,0,степ
1773669007813,347,-101,0,степ
1773669007813,347,-101,0,степ
1773669007813,347,-93,0,степ
1773669007813,347,-113,0,степ
1773669007813,347,-125,0,степ
1773669007821,347,-101,0,степ
1773669007821,347,-83,0,степ
1773669007821,347,-96,0,степ
1773669007821,347,-115,0,степ
1773669007821,347,-113,0,степ
1773669007821,347,-106,0,степ
1773669007821,347,-93,0,степ
1773669007821,347,-64,0,степ
1773669007821,347,-46,0,степ
1773669007829,347,-66,0,степ
1773669007829,347,-93,0,степ
1773669007829,347,-91,0,степ
1773669007829,347,-78,0,степ
1773669007829,347,-88,0,степ
1773669007829,347,-110,0,степ
1773669007829,347,-106,0,степ
1773669007837,347,-86,0,степ
1773669007837,347,-83,0,степ
1773669007837,347,-78,0,степ
1773669007837,347,-96,0,степ
1773669007837,347,-182,0,степ
1773669007837,347,-244,0,степ
1773669007837,347,-83,0,степ
1773669007837,344,-83,0,степ
1773669007878,344,-83,0,степ
1773669007983,342,-83,0,степ
1773669008086,342,-83,0,степ
1773669008195,345,-83,0,степ
1773669008296,344,-83,0,степ
1773669008305,344,323,0,степ
1773669008305,344,702,0,степ
1773669008305,344,692,0,степ
1773669008305,344,253,0,степ
1773669008305,344,-147,0,степ
1773669008305,344,-184,0,степ
1773669008305,344,-138,0,степ
1773669008321,344,-204,0,степ
1773669008322,344,-216,0,степ
1773669008322,344,-189,0,степ
1773669008322,344,-197,0,степ
1773669008322,344,-192,0,степ
1773669008322,344,-177,0,степ
1773669008322,344,-175,0,степ
1773669008322,344,-162,0,степ
1773669008322,344,-150,0,степ
1773669008322,344,-145,0,степ
1773669008330,344,-140,0,степ
1773669008330,344,-140,0,степ
1773669008330,344,-130,0,степ
1773669008330,344,-108,0,степ
1773669008330,344,-101,0,степ
1773669008330,344,-91,0,степ
1773669008330,344,-61,0,степ
1773669008330,344,-39,0,степ
1773669008330,344,-34,0,степ
1773669008337,344,-19,0,степ
1773669008337,344,-2,0,степ
1773669008339,344,0,0,степ
1773669008339,344,0,0,степ
1773669008339,344,-12,0,степ
1773669008339,344,-41,0,степ
1773669008339,344,-61,0,степ
1773669008339,344,-73,0,степ
1773669008339,344,-115,0,степ
1773669008339,344,-155,0,степ
1773669008339,344,-165,0,степ
1773669008339,344,-177,0,степ
1773669008339,344,-182,0,степ
1773669008339,344,-177,0,степ
1773669008339,344,-175,0,степ
1773669008339,344,-165,0,степ
1773669008339,344,-160,0,степ
1773669008339,344,-170,0,степ
1773669008353,344,-167,0,степ
1773669008353,344,-160,0,степ
1773669008353,344,-160,0,степ
1773669008353,344,-165,0,степ
1773669008353,344,-155,0,степ
1773669008353,344,-138,0,степ
1773669008353,344,-123,0,степ
1773669008361,344,-113,0,степ
1773669008361,344,-110,0,степ
1773669008361,344,-106,0,степ
1773669008361,344,-98,0,степ
1773669008361,344,-101,0,степ
1773669008361,344,-106,0,степ
1773669008361,344,-101,0,степ
1773669008361,344,-93,0,степ
1773669008361,344,-96,0,степ
1773669008361,344,-128,0,степ
1773669008370,344,-204,0,степ
1773669008370,344,-231,0,степ
1773669008370,344,-17,0,степ
1773669008370,344,443,0,степ
1773669008370,344,813,0,степ
1773669008370,344,717,0,степ
1773669008370,344,209,0,степ
1773669008370,344,-197,0,степ
1773669008370,344,-229,0,степ
1773669008370,344,-189,0,степ
1773669008378,344,-244,0,степ
1773669008378,344,-241,0,степ
1773669008394,343,-241,0,степ
1773669008502,345,-241,0,степ
1773669008588,346,-241,0,степ
1773669008678,346,-241,0,степ
1773669008792,346,-241,0,степ
1773669008886,346,-207,0,степ
1773669008886,346,-207,0,степ
1773669008886,346,-209,0,степ
1773669008886,346,-202,0,степ
1773669008902,346,-194,0,степ
1773669008903,346,-184,0,степ
1773669008905,346,-180,0,степ
1773669008905,346,-182,0,степ
1773669008905,346,-175,0,степ
1773669008905,346,-162,0,степ
1773669008905,346,-155,0,степ
1773669008905,346,-138,0,степ
1773669008905,346,-120,0,степ
1773669008905,346,-106,0,степ
1773669008905,346,-93,0,степ
1773669008905,346,-73,0,степ
1773669008905,346,-51,0,степ
1773669008905,346,-39,0,степ
1773669008905,346,-22,0,степ
1773669008905,346,-12,0,степ
1773669008905,346,-19,0,степ
1773669008905,346,-27,0,степ
1773669008905,346,-34,0,степ
1773669008920,346,-51,0,степ
1773669008920,346,-76,0,степ
1773669008920,346,-106,0,степ
1773669008920,346,-125,0,степ
1773669008920,346,-133,0,степ
1773669008920,346,-140,0,степ
1773669008920,346,-147,0,степ
1773669008920,346,-147,0,степ
1773669008920,346,-140,0,степ
1773669008928,346,-135,0,степ
1773669008928,346,-135,0,степ
1773669008928,346,-133,0,степ
1773669008928,346,-130,0,степ
1773669008928,346,-140,0,степ
1773669008928,346,-145,0,степ
1773669008928,346,-135,0,степ
1773669008928,346,-128,0,степ
1773669008928,346,-125,0,степ
1773669008936,346,-113,0,степ
1773669008937,346,-101,0,степ
1773669008937,346,-96,0,степ
1773669008937,346,-101,0,степ
1773669008937,346,-110,0,степ
1773669008937,346,-115,0,степ
1773669008937,346,-113,0,степ
1773669008937,346,-113,0,степ
1773669008937,346,-110,0,степ
1773669008945,346,-118,0,степ
1773669008945,346,-150,0,степ
1773669008945,346,-216,0,степ
1773669008945,346,-199,0,степ
1773669008945,346,83,0,степ
1773669008945,346,549,0,степ
1773669008945,346,816,0,степ
1773669008945,346,589,0,степ
1773669008945,346,51,0,степ
1773669008945,346,-244,0,степ
1773669008953,346,-184,0,степ
1773669008953,346,-160,0,степ
1773669008953,346,-226,0,степ
1773669008953,346,-204,0,степ
1773669008953,346,-165,0,степ
1773669008953,346,-180,0,степ
1773669008953,346,-180,0,степ
1773669008953,346,-150,0,степ
1773669008953,346,-133,0,степ
1773669008961,346,-125,0,степ
1773669008961,346,-110,0,степ
1773669008961,346,-103,0,степ
1773669008961,346,-110,0,степ
1773669008961,349,-110,0,степ
1773669008989,356,-110,0,степ
1773669009089,349,-110,0,степ
1773669009186,350,-110,0,степ
1773669009303,349,-110,0,степ
1773669009402,355,-110,0,степ
1773669009486,354,-110,0,степ
1773669009521,354,-88,0,степ
1773669009529,354,-69,0,степ
1773669009529,354,-76,0,степ
1773669009529,354,-66,0,степ
1773669009529,354,-46,0,степ
1773669009529,354,-34,0,степ
1773669009529,354,-19,0,степ
1773669009529,354,0,0,степ
1773669009529,354,9,0,степ
1773669009529,354,12,0,степ
1773669009537,354,19,0,степ
1773669009537,354,12,0,степ
1773669009544,354,-14,0,степ
1773669009544,354,-27,0,степ
1773669009544,354,-36,0,степ
1773669009544,354,-71,0,степ
1773669009544,354,-78,0,степ
1773669009544,354,-66,0,степ
1773669009552,354,-91,0,степ
1773669009552,354,-113,0,степ
1773669009552,354,-66,0,степ
1773669009552,354,-4,0,степ
1773669009552,354,-12,0,степ
1773669009552,354,-76,0,степ
1773669009552,354,-113,0,степ
1773669009552,354,-115,0,степ
1773669009552,354,-93,0,степ
1773669009560,354,-71,0,степ
1773669009560,354,-96,0,степ
1773669009560,354,-135,0,степ
1773669009560,354,-106,0,степ
1773669009560,354,-56,0,степ
1773669009560,354,-76,0,степ
1773669009560,354,-108,0,степ
1773669009560,354,-113,0,степ
1773669009560,354,-125,0,степ
1773669009568,354,-125,0,степ
1773669009568,354,-123,0,степ
1773669009568,354,-143,0,степ
1773669009568,354,-162,0,степ
1773669009568,354,-175,0,степ
1773669009568,354,-234,0,степ
1773669009568,354,-332,0,степ
1773669009568,354,-295,0,степ
1773669009568,354,12,0,степ
1773669009568,354,426,0,степ
1773669009577,354,572,0,степ
1773669009577,354,268,0,степ
1773669009577,354,-184,0,степ
1773669009577,354,-357,0,степ
1773669009577,354,-305,0,степ
1773669009577,354,-325,0,степ
1773669009577,354,-377,0,степ
1773669009577,354,-340,0,степ
1773669009577,354,-305,0,степ
1773669009577,354,-327,0,степ
1773669009585,354,-335,0,степ
1773669009585,354,-313,0,степ
1773669009585,354,-298,0,степ
1773669009585,354,-288,0,степ
1773669009589,354,-266,0,степ
1773669009589,354,-236,0,степ
1773669009589,354,-209,0,степ
1773669009589,354,-182,0,степ
1773669009589,354,-167,0,степ
1773669009589,354,-152,0,степ
1773669009589,354,-123,0,степ
1773669009589,354,-96,0,степ
1773669009597,354,-81,0,степ
1773669009597,354,-54,0,степ
1773669009597,354,-19,0,степ
1773669009597,354,-7,0,степ
1773669009597,354,-7,0,степ
1773669009597,353,-7,0,степ
1773669009688,354,-7,0,степ
1773669009794,356,-7,0,степ
1773669009917,349,-7,0,степ
1773669010014,355,-7,0,степ
1773669010020,355,-2,0,степ
1773669010020,355,-14,0,степ
1773669010020,355,-29,0,степ
1773669010020,355,-41,0,степ
1773669010020,355,-71,0,степ
1773669010020,355,-98,0,степ
1773669010020,355,-123,0,степ
1773669010029,355,-157,0,степ
1773669010029,355,-177,0,степ
1773669010029,355,-177,0,степ
1773669010029,355,-177,0,степ
1773669010029,355,-180,0,степ
1773669010029,355,-182,0,степ
1773669010029,355,-175,0,степ
1773669010029,355,-165,0,степ
1773669010036,355,-184,0,степ
1773669010036,355,-189,0,степ
1773669010036,355,-157,0,степ
1773669010036,355,-160,0,степ
1773669010036,355,-182,0,степ
1773669010036,355,-155,0,степ
1773669010036,355,-128,0,степ
1773669010045,355,-135,0,степ
1773669010046,355,-140,0,степ
1773669010047,355,-143,0,степ
1773669010048,355,-147,0,степ
1773669010050,355,-135,0,степ
1773669010050,355,-123,0,степ
1773669010051,355,-133,0,степ
1773669010052,355,-140,0,степ
1773669010053,355,-152,0,степ
1773669010055,355,-226,0,степ
1773669010056,355,-251,0,степ
1773669010056,355,0,0,степ
1773669010056,355,466,0,степ
1773669010056,355,747,0,степ
1773669010056,355,540,0,степ
1773669010056,355,51,0,степ
1773669010056,355,-204,0,степ
1773669010056,355,-165,0,степ
1773669010056,355,-175,0,степ
1773669010064,355,-234,0,степ
1773669010064,355,-209,0,степ
1773669010064,355,-189,0,степ
1773669010064,355,-194,0,степ
1773669010064,355,-170,0,степ
1773669010064,355,-152,0,степ
1773669010064,355,-157,0,степ
1773669010070,355,-140,0,степ
1773669010070,355,-110,0,степ
1773669010070,355,-120,0,степ
1773669010070,355,-147,0,степ
1773669010070,355,-138,0,степ
1773669010070,355,-115,0,степ
1773669010070,355,-103,0,степ
1773669010070,355,-78,0,степ
1773669010070,355,-41,0,степ
1773669010070,355,-24,0,степ
1773669010079,355,-27,0,степ
1773669010079,355,-9,0,степ
1773669010079,355,14,0,степ
1773669010079,355,19,0,степ
1773669010079,355,22,0,степ
1773669010079,355,22,0,степ
1773669010079,355,7,0,степ
1773669010079,355,-17,0,степ
1773669010079,355,-44,0,степ
1773669010086,355,-76,0,степ
1773669010086,355,-110,0,степ
1773669010086,355,-147,0,степ
1773669010086,355,-157,0,степ
1773669010086,355,-155,0,степ
1773669010086,355,-170,0,степ
1773669010095,375,-170,0,степ
1773669010186,367,-170,0,степ
1773669010286,366,-170,0,степ
1773669010370,366,-170,0,степ
1773669010470,364,-170,0,степ
1773669010577,365,-170,0,степ
1773669010603,365,-182,0,степ
1773669010603,365,-170,0,степ
1773669010603,365,-150,0,степ
1773669010603,365,-133,0,степ
1773669010603,365,-130,0,степ
1773669010603,365,-145,0,степ
1773669010603,365,-150,0,степ
1773669010603,365,-138,0,степ
1773669010603,365,-130,0,степ
1773669010603,365,-133,0,степ
1773669010603,365,-133,0,степ
1773669010603,365,-130,0,степ
1773669010619,365,-128,0,степ
1773669010619,365,-125,0,степ
1773669010619,365,-130,0,степ
1773669010621,365,-133,0,степ
1773669010621,365,-138,0,степ
1773669010621,365,-145,0,степ
1773669010621,365,-140,0,степ
1773669010621,365,-157,0,степ
1773669010621,365,-244,0,степ
1773669010621,365,-271,0,степ
1773669010621,365,-14,0,степ
1773669010621,365,468,0,степ
1773669010629,365,791,0,степ
1773669010629,365,601,0,степ
1773669010629,365,83,0,степ
1773669010629,365,-199,0,степ
1773669010629,365,-145,0,степ
1773669010629,365,-133,0,степ
1773669010629,365,-204,0,степ
1773669010629,365,-180,0,степ
1773669010637,365,-143,0,степ
1773669010637,365,-165,0,степ
1773669010639,365,-162,0,степ
1773669010639,365,-140,0,степ
1773669010639,365,-133,0,степ
1773669010639,365,-118,0,степ
1773669010639,365,-88,0,степ
1773669010639,365,-76,0,степ
1773669010639,365,-69,0,степ
1773669010639,365,-61,0,степ
1773669010639,365,-64,0,степ
1773669010639,365,-56,0,степ
1773669010639,365,-41,0,степ
1773669010639,365,-24,0,степ
1773669010639,365,-7,0,степ
1773669010639,365,-2,0,степ
1773669010639,365,-7,0,степ
1773669010639,365,14,0,степ
1773669010639,365,39,0,степ
1773669010653,365,32,0,степ
1773669010653,365,19,0,степ
1773669010653,365,17,0,степ
1773669010653,365,-4,0,степ
1773669010653,365,-46,0,степ
1773669010653,365,-81,0,степ
1773669010653,365,-93,0,степ
1773669010653,365,-128,0,степ
1773669010661,365,-165,0,степ
1773669010661,365,-155,0,степ
1773669010661,365,-145,0,степ
1773669010661,365,-157,0,степ
1773669010661,365,-145,0,степ
1773669010661,365,-128,0,степ
1773669010661,365,-150,0,степ
1773669010661,365,-165,0,степ
1773669010661,365,-143,0,степ
1773669010669,365,-147,0,степ
1773669010669,365,-162,0,степ
1773669010669,365,-143,0,степ
1773669010669,365,-133,0,степ
1773669010669,365,-138,0,степ
1773669010705,355,-138,0,степ
1773669010795,352,-138,0,степ
1773669010894,356,-138,0,степ
1773669010985,358,-138,0,степ
1773669011113,352,-138,0,степ
1773669011145,352,-133,0,степ
1773669011145,352,-130,0,степ
1773669011145,352,-118,0,степ
1773669011145,352,-120,0,степ
1773669011145,352,-138,0,степ
1773669011153,352,-125,0,степ
1773669011153,352,-108,0,степ
1773669011156,352,-125,0,степ
1773669011156,352,-152,0,степ
1773669011156,352,-204,0,степ
1773669011156,352,-268,0,степ
1773669011156,352,-162,0,степ
1773669011156,352,236,0,степ
1773669011156,352,702,0,степ
1773669011156,352,793,0,степ
1773669011156,352,355,0,степ
1773669011156,352,-157,0,степ
1773669011156,352,-266,0,степ
1773669011156,352,-202,0,степ
1773669011156,352,-266,0,степ
1773669011156,352,-308,0,степ
1773669011156,352,-263,0,степ
1773669011170,352,-251,0,степ
1773669011170,352,-251,0,степ
1773669011170,352,-241,0,степ
1773669011170,352,-244,0,степ
1773669011170,352,-236,0,степ
1773669011170,352,-214,0,степ
1773669011170,352,-207,0,степ
1773669011170,352,-207,0,степ
1773669011170,352,-204,0,степ
1773669011170,352,-187,0,степ
1773669011180,352,-162,0,степ
1773669011181,352,-152,0,степ
1773669011182,352,-147,0,степ
1773669011183,352,-115,0,степ
1773669011184,352,-86,0,степ
1773669011185,352,-76,0,степ
1773669011185,352,-66,0,степ
1773669011187,352,-49,0,степ
1773669011188,352,-34,0,степ
1773669011188,352,-29,0,степ
1773669011188,352,-36,0,степ
1773669011188,352,-54,0,степ
1773669011188,352,-96,0,степ
1773669011188,352,-123,0,степ
1773669011188,352,-108,0,степ
1773669011188,352,-96,0,степ
1773669011188,352,-130,0,степ
1773669011188,352,-167,0,степ
1773669011196,352,-167,0,степ
1773669011196,352,-160,0,степ
1773669011196,352,-180,0,степ
1773669011196,352,-192,0,степ
1773669011196,352,-165,0,степ
1773669011196,352,-128,0,степ
1773669011196,352,-128,0,степ
1773669011196,352,-133,0,степ
1773669011204,352,-120,0,степ
1773669011204,352,-125,0,степ
1773669011204,352,-125,0,степ
1773669011204,352,-88,0,степ
1773669011204,352,-69,0,степ
1773669011204,352,-88,0,степ
1773669011204,352,-78,0,степ
1773669011204,352,-61,0,степ
1773669011204,352,-78,0,степ
1773669011204,352,-78,0,степ
1773669011213,352,-56,0,степ
1773669011213,352,-54,0,степ
1773669011213,352,-71,0,степ
1773669011213,352,-128,0,степ
1773669011213,352,-221,0,степ
1773669011213,356,-221,0,степ
1773669011296,357,-221,0,степ
1773669011385,354,-221,0,степ
1773669011484,354,-221,0,степ
1773669011576,348,-221,0,степ
1773669011686,348,-175,0,степ
1773669011686,348,155,0,степ
1773669011686,348,660,0,степ
1773669011686,348,937,0,степ
1773669011686,348,599,0,степ
1773669011686,348,-36,0,степ
1773669011686,348,-283,0,степ
1773669011686,348,-219,0,степ
1773669011686,348,-258,0,степ
1773669011686,348,-276,0,степ
1773669011686,348,-202,0,степ
1773669011686,348,-229,0,степ
1773669011686,348,-273,0,степ
1773669011686,348,-231,0,степ
1773669011686,348,-187,0,степ
1773669011686,348,-192,0,степ
1773669011702,348,-197,0,степ
1773669011702,348,-192,0,степ
1773669011702,348,-170,0,степ
1773669011702,348,-135,0,степ
1773669011702,348,-118,0,степ
1773669011702,348,-120,0,степ
1773669011702,348,-118,0,степ
1773669011702,348,-88,0,степ
1773669011702,348,-64,0,степ
1773669011702,348,-51,0,степ
1773669011702,348,-27,0,степ
1773669011702,348,2,0,степ
1773669011702,348,12,0,степ
1773669011702,348,27,0,степ
1773669011702,348,49,0,степ
1773669011702,348,34,0,степ
1773669011702,348,-2,0,степ
1773669011702,348,-32,0,степ
1773669011702,348,-54,0,степ
1773669011702,348,-83,0,степ
1773669011702,348,-110,0,степ
1773669011718,348,-128,0,степ
1773669011718,348,-155,0,степ
1773669011721,348,-170,0,степ
1773669011721,348,-152,0,степ
1773669011721,348,-147,0,степ
1773669011721,348,-160,0,степ
1773669011721,348,-157,0,степ
1773669011721,348,-167,0,степ
1773669011721,348,-184,0,степ
1773669011721,348,-175,0,степ
1773669011721,348,-155,0,степ
1773669011721,348,-143,0,степ
1773669011721,348,-130,0,степ
1773669011721,348,-125,0,степ
1773669011721,348,-113,0,степ
1773669011721,348,-103,0,степ
1773669011721,348,-118,0,степ
1773669011721,348,-133,0,степ
1773669011736,348,-135,0,степ
1773669011736,348,-138,0,степ
1773669011736,348,-133,0,степ
1773669011736,348,-123,0,степ
1773669011736,348,-140,0,степ
1773669011736,348,-207,0,степ
1773669011736,348,-263,0,степ
1773669011736,348,-118,0,степ
1773669011744,348,300,0,степ
1773669011744,348,695,0,степ
1773669011744,348,650,0,степ
1773669011744,348,207,0,степ
1773669011744,348,-120,0,степ
1773669011744,348,-140,0,степ
1773669011744,348,-147,0,степ
1773669011744,348,-204,0,степ
1773669011744,348,-170,0,степ
1773669011744,348,-138,0,степ
1773669011752,348,-138,0,степ
1773669011786,347,-138,0,степ
1773669011886,347,-138,0,степ
1773669012002,348,-138,0,степ
1773669012102,347,-138,0,степ
1773669012219,346,-138,0,степ
1773669012287,346,-138,0,степ
1773669012303,346,-165,0,степ
1773669012318,346,-157,0,степ
1773669012319,346,-135,0,степ
1773669012321,346,-147,0,степ
1773669012321,346,-160,0,степ
1773669012321,346,-150,0,степ
1773669012321,346,-135,0,степ
1773669012321,346,-128,0,степ
1773669012321,346,-120,0,степ
1773669012321,346,-115,0,степ
1773669012321,346,-115,0,степ
1773669012321,346,-118,0,степ
1773669012321,346,-96,0,степ
1773669012321,346,-64,0,степ
1773669012321,346,-54,0,степ
1773669012321,346,-46,0,степ
1773669012321,346,-34,0,степ
1773669012321,346,-32,0,степ
1773669012321,346,-17,0,степ
1773669012321,346,-2,0,степ
1773669012321,346,-24,0,степ
1773669012336,346,-61,0,степ
1773669012336,346,-81,0,степ
1773669012336,346,-108,0,степ
1773669012336,346,-152,0,степ
1773669012336,346,-170,0,степ
1773669012336,346,-182,0,степ
1773669012336,346,-214,0,степ
1773669012336,346,-216,0,степ
1773669012336,346,-209,0,степ
1773669012344,346,-212,0,степ
1773669012344,346,-202,0,степ
1773669012344,346,-197,0,степ
1773669012344,346,-204,0,степ
1773669012344,346,-212,0,степ
1773669012344,346,-221,0,степ
1773669012344,346,-229,0,степ
1773669012344,346,-212,0,степ
1773669012344,346,-199,0,степ
1773669012344,346,-192,0,степ
1773669012353,346,-177,0,степ
1773669012354,346,-172,0,степ
1773669012355,346,-180,0,степ
1773669012355,346,-172,0,степ
1773669012355,346,-160,0,степ
1773669012355,346,-165,0,степ
1773669012355,346,-172,0,степ
1773669012355,346,-175,0,степ
1773669012355,346,-177,0,степ
1773669012355,346,-226,0,степ
1773669012355,346,-318,0,степ
1773669012355,346,-253,0,степ
1773669012363,346,145,0,степ
1773669012363,346,675,0,степ
1773669012363,346,853,0,степ
1773669012363,346,473,0,степ
1773669012363,346,-66,0,степ
1773669012363,346,-266,0,степ
1773669012363,346,-229,0,степ
1773669012363,346,-266,0,степ
1773669012371,346,-303,0,степ
1773669012371,346,-249,0,степ
1773669012371,346,-226,0,степ
1773669012371,346,-241,0,степ
1773669012371,346,-216,0,степ
1773669012371,346,-199,0,степ
1773669012371,346,-216,0,степ
1773669012371,346,-221,0,степ
1773669012371,346,-209,0,степ
1773669012371,346,-204,0,степ
1773669012379,346,-202,0,степ
1773669012379,346,-194,0,степ
1773669012379,346,-189,0,степ
1773669012422,344,-189,0,степ
1773669012486,343,-189,0,степ
1773669012605,344,-189,0,степ
1773669012683,343,-189,0,степ
1773669012786,342,-189,0,степ
1773669012802,342,-177,0,степ
1773669012802,342,-155,0,степ
1773669012802,342,-135,0,степ
1773669012802,342,-128,0,степ
1773669012802,342,-118,0,степ
1773669012817,342,-93,0,степ
1773669012817,342,-76,0,степ
1773669012817,342,-73,0,степ
1773669012817,342,-71,0,степ
1773669012817,342,-73,0,степ
1773669012817,342,-86,0,степ
1773669012817,342,-98,0,степ
1773669012817,342,-110,0,степ
1773669012817,342,-143,0,степ
1773669012817,342,-165,0,степ
1773669012817,342,-167,0,степ
1773669012817,342,-170,0,степ
1773669012817,342,-180,0,степ
1773669012817,342,-184,0,степ
1773669012817,342,-180,0,степ
1773669012817,342,-172,0,степ
1773669012833,342,-170,0,степ
1773669012833,342,-162,0,степ
1773669012833,342,-162,0,степ
1773669012833,342,-177,0,степ
1773669012838,342,-177,0,степ
1773669012838,342,-165,0,степ
1773669012838,342,-165,0,степ
1773669012838,342,-165,0,степ
1773669012838,342,-145,0,степ
1773669012838,342,-128,0,степ
1773669012838,342,-120,0,степ
1773669012838,342,-118,0,степ
1773669012838,342,-118,0,степ
1773669012846,342,-128,0,степ
1773669012846,342,-128,0,степ
1773669012846,342,-115,0,степ
1773669012846,342,-113,0,степ
1773669012846,342,-135,0,степ
1773669012846,342,-199,0,степ
1773669012846,342,-256,0,степ
1773669012846,342,-110,0,степ
1773669012846,342,330,0,степ
1773669012853,342,781,0,степ
1773669012853,342,816,0,степ
1773669012853,342,374,0,степ
1773669012858,342,-108,0,степ
1773669012861,342,-241,0,степ
1773669012862,342,-192,0,степ
1773669012863,342,-229,0,степ
1773669012864,342,-258,0,степ
1773669012865,342,-216,0,степ
1773669012866,342,-202,0,степ
1773669012867,342,-216,0,степ
1773669012868,342,-204,0,степ
1773669012868,342,-180,0,степ
1773669012868,342,-177,0,степ
1773669012868,342,-180,0,степ
1773669012868,342,-172,0,степ
1773669012868,342,-170,0,степ
1773669012868,342,-167,0,степ
1773669012868,342,-155,0,степ
1773669012868,342,-143,0,степ
1773669012876,342,-140,0,степ
1773669012876,342,-130,0,степ
1773669012876,342,-103,0,степ
1773669012876,342,-81,0,степ
1773669012876,342,-69,0,степ
1773669012876,342,-61,0,степ
1773669012876,342,-49,0,степ
1773669012876,342,-44,0,степ
1773669012876,342,-39,0,степ
1773669012876,342,-36,0,степ
1773669012886,344,-36,0,степ
1773669013002,344,-36,0,степ
1773669013093,344,-36,0,степ
1773669013201,345,-36,0,степ
1773669013309,345,-36,0,степ
1773669013353,345,-46,0,степ
1773669013353,345,-66,0,степ
1773669013353,345,-81,0,степ
1773669013356,345,-101,0,степ
1773669013358,345,-125,0,степ
1773669013358,345,-135,0,степ
1773669013358,345,-135,0,степ
1773669013358,345,-145,0,степ
1773669013358,345,-150,0,степ
1773669013358,345,-150,0,степ
1773669013358,345,-150,0,степ
1773669013358,345,-150,0,степ
1773669013358,345,-150,0,степ
1773669013358,345,-152,0,степ
1773669013358,345,-150,0,степ
1773669013358,345,-152,0,степ
1773669013358,345,-160,0,степ
1773669013369,345,-150,0,степ
1773669013369,345,-130,0,степ
1773669013369,345,-123,0,степ
1773669013369,345,-120,0,степ
1773669013369,345,-113,0,степ
1773669013369,345,-108,0,степ
1773669013369,345,-108,0,степ
1773669013369,345,-108,0,степ
1773669013369,345,-115,0,степ
1773669013378,345,-123,0,степ
1773669013378,345,-123,0,степ
1773669013378,345,-123,0,степ
1773669013378,345,-172,0,степ
1773669013378,345,-251,0,степ
1773669013378,345,-138,0,степ
1773669013378,345,268,0,степ
1773669013378,345,700,0,степ
1773669013378,345,774,0,степ
1773669013387,345,374,0,степ
1773669013387,345,-120,0,степ
1773669013387,345,-241,0,степ
1773669013387,345,-160,0,степ
1773669013387,345,-202,0,степ
1773669013387,345,-244,0,степ
1773669013387,345,-189,0,степ
1773669013387,345,-165,0,степ
1773669013387,345,-189,0,степ
1773669013387,345,-187,0,степ
1773669013395,345,-170,0,степ
1773669013395,345,-157,0,степ
1773669013395,345,-138,0,степ
1773669013395,345,-128,0,степ
1773669013395,345,-133,0,степ
1773669013395,345,-123,0,степ
1773669013395,345,-115,0,степ
1773669013395,345,-113,0,степ
1773669013395,345,-96,0,степ
1773669013403,345,-83,0,степ
1773669013403,345,-88,0,степ
1773669013403,345,-71,0,степ
1773669013403,345,-44,0,степ
1773669013403,345,-34,0,степ
1773669013403,345,-32,0,степ
1773669013403,345,-22,0,степ
1773669013403,345,-2,0,степ
1773669013403,345,9,0,степ
1773669013411,345,-29,0,степ
1773669013411,345,-86,0,степ
1773669013411,345,-73,0,степ
1773669013411,345,-96,0,степ
1773669013411,345,-175,0,степ
1773669013411,345,-170,0,степ
1773669013411,345,-128,0,степ
1773669013411,345,-147,0,степ
1773669013411,345,-162,0,степ
1773669013411,345,-155,0,степ
1773669013422,347,-155,0,степ
1773669013499,337,-155,0,степ
1773669013594,336,-155,0,степ
1773669013676,338,-155,0,степ
1773669013784,340,-155,0,степ
1773669013890,338,-155,0,степ
1773669013993,344,-155,0,степ
1773669014068,344,-147,0,степ
1773669014068,344,-123,0,степ
1773669014068,344,-110,0,степ
1773669014076,344,-133,0,степ
1773669014076,344,-150,0,степ
1773669014076,344,-152,0,степ
1773669014076,344,-145,0,степ
1773669014076,344,-128,0,степ
1773669014076,344,-98,0,степ
1773669014076,344,-24,0,степ
1773669014076,344,46,0,степ
1773669014076,344,36,0,степ
1773669014076,344,-29,0,степ
1773669014084,344,-69,0,степ
1773669014084,344,-73,0,степ
1773669014084,344,-86,0,степ
1773669014084,344,-88,0,степ
1773669014084,344,-76,0,степ
1773669014084,344,-76,0,степ
1773669014084,344,-93,0,степ
1773669014092,344,-147,0,степ
1773669014092,344,-187,0,степ
1773669014092,344,-34,0,степ
1773669014092,344,352,0,степ
1773669014092,344,692,0,степ
1773669014092,344,636,0,степ
1773669014092,344,167,0,степ
1773669014092,344,-251,0,степ
1773669014092,344,-283,0,степ
1773669014092,344,-207,0,степ
1773669014092,344,-271,0,степ
1773669014092,344,-310,0,степ
1773669014092,344,-268,0,степ
1773669014104,344,-253,0,степ
1773669014104,344,-278,0,степ
1773669014104,344,-281,0,степ
1773669014104,344,-276,0,степ
1773669014104,344,-283,0,степ
1773669014109,344,-278,0,степ
1773669014109,344,-251,0,степ
1773669014110,344,-241,0,степ
1773669014110,344,-249,0,степ
1773669014110,344,-241,0,степ
1773669014110,344,-209,0,степ
1773669014110,344,-182,0,степ
1773669014110,344,-182,0,степ
1773669014110,344,-180,0,степ
1773669014110,344,-150,0,степ
1773669014110,344,-125,0,степ
1773669014118,344,-108,0,степ
1773669014118,344,-91,0,степ
1773669014120,344,-83,0,степ
1773669014120,344,-78,0,степ
1773669014120,344,-73,0,степ
1773669014120,344,-78,0,степ
1773669014120,344,-96,0,степ
1773669014120,344,-115,0,степ
1773669014120,344,-138,0,степ
1773669014120,344,-162,0,степ
1773669014120,344,-177,0,степ
1773669014128,344,-177,0,степ
1773669014128,344,-175,0,степ
1773669014128,344,-177,0,степ
1773669014128,344,-172,0,степ
1773669014128,344,-177,0,степ
1773669014128,344,-202,0,степ
1773669014128,344,-199,0,степ
1773669014128,344,-170,0,степ
1773669014136,344,-172,0,степ
1773669014136,344,-184,0,степ
1773669014136,344,-155,0,степ
1773669014136,344,-118,0,степ
1773669014136,344,-106,0,степ
1773669014136,345,-106,0,степ
1773669014195,339,-106,0,степ
1773669014277,340,-106,0,степ
1773669014376,343,-106,0,степ
1773669014492,339,-106,0,степ
1773669014553,339,-98,0,степ
1773669014569,339,-91,0,степ
1773669014569,339,-125,0,степ
1773669014569,339,-167,0,степ
1773669014569,339,-157,0,степ
1773669014569,339,-133,0,степ
1773669014569,339,-135,0,степ
1773669014569,339,-140,0,степ
1773669014569,339,-143,0,степ
1773669014569,339,-192,0,степ
1773669014569,339,-258,0,степ
1773669014577,339,-155,0,степ
1773669014577,339,214,0,степ
1773669014577,339,616,0,степ
1773669014577,339,673,0,степ
1773669014577,339,290,0,степ
1773669014577,339,-138,0,степ
1773669014577,339,-216,0,степ
1773669014577,339,-152,0,степ
1773669014577,339,-216,0,степ
1773669014577,339,-256,0,степ
1773669014586,339,-209,0,степ
1773669014586,339,-207,0,степ
1773669014586,339,-226,0,степ
1773669014586,339,-189,0,степ
1773669014586,339,-162,0,степ
1773669014586,339,-172,0,степ
1773669014586,339,-165,0,степ
1773669014586,339,-160,0,степ
1773669014594,339,-165,0,степ
1773669014594,339,-147,0,степ
1773669014594,339,-123,0,степ
1773669014594,339,-125,0,степ
1773669014594,339,-133,0,степ
1773669014594,339,-123,0,степ
1773669014594,339,-101,0,степ
1773669014594,339,-86,0,степ
1773669014594,339,-76,0,степ
1773669014602,339,-61,0,степ
1773669014602,339,-64,0,степ
1773669014602,339,-78,0,степ
1773669014602,339,-71,0,степ
1773669014602,339,-64,0,степ
1773669014602,339,-93,0,степ
1773669014602,339,-118,0,степ
1773669014602,339,-125,0,степ
1773669014602,339,-152,0,степ
1773669014610,339,-189,0,степ
1773669014610,339,-204,0,степ
1773669014610,339,-212,0,степ
1773669014610,339,-221,0,степ
1773669014610,339,-224,0,степ
1773669014610,339,-219,0,степ
1773669014610,339,-224,0,степ
1773669014610,339,-241,0,степ
1773669014610,339,-244,0,степ
1773669014610,339,-221,0,степ
1773669014619,339,-212,0,степ
1773669014619,339,-224,0,степ
1773669014619,339,-221,0,степ
1773669014619,339,-197,0,степ
1773669014619,339,-182,0,степ
1773669014619,339,-187,0,степ
1773669014619,339,-187,0,степ
1773669014619,339,-189,0,степ
1773669014619,339,-197,0,степ
1773669014619,339,-199,0,степ
1773669014627,339,-199,0,степ
1773669014627,339,-209,0,степ
1773669014627,339,-212,0,степ
1773669014627,339,-194,0,степ
1773669014627,339,-204,0,степ
1773669014627,339,-278,0,степ
1773669014627,337,-278,0,степ
1773669014693,337,-278,0,степ
1773669014785,335,-278,0,степ
1773669014877,338,-278,0,степ
1773669014977,343,-278,0,степ
1773669015084,334,-278,0,степ
1773669015152,334,-310,0,степ
1773669015154,334,-101,0,степ
1773669015154,334,357,0,степ
1773669015156,334,744,0,степ
1773669015156,334,673,0,степ
1773669015156,334,172,0,степ
1773669015156,334,-258,0,степ
1773669015156,334,-305,0,степ
1773669015156,334,-246,0,степ
1773669015156,334,-286,0,степ
1773669015156,334,-298,0,степ
1773669015156,334,-273,0,степ
1773669015156,334,-268,0,степ
1773669015156,334,-268,0,степ
1773669015156,334,-253,0,степ
1773669015156,334,-249,0,степ
1773669015156,334,-251,0,степ
1773669015156,334,-231,0,степ
1773669015156,334,-207,0,степ
1773669015170,334,-194,0,степ
1773669015170,334,-180,0,степ
1773669015170,334,-199,0,степ
1773669015170,334,-241,0,степ
1773669015170,334,-221,0,степ
1773669015170,334,-167,0,степ
1773669015170,334,-145,0,степ
1773669015170,334,-133,0,степ
1773669015170,334,-96,0,степ
1773669015178,334,-73,0,степ
1773669015178,334,-91,0,степ
1773669015178,334,-91,0,степ
1773669015178,334,-49,0,степ
1773669015178,334,-51,0,степ
1773669015178,334,-78,0,степ
1773669015178,334,-76,0,степ
1773669015178,334,-96,0,степ
1773669015178,334,-147,0,степ
1773669015186,334,-147,0,степ
1773669015186,334,-138,0,степ
1773669015186,334,-165,0,степ
1773669015186,334,-170,0,степ
1773669015186,334,-162,0,степ
1773669015186,334,-170,0,степ
1773669015186,334,-160,0,степ
1773669015186,334,-152,0,степ
1773669015186,334,-155,0,степ
1773669015194,334,-147,0,степ
1773669015194,334,-147,0,степ
1773669015194,334,-152,0,степ
1773669015194,334,-155,0,степ
1773669015194,334,-165,0,степ
1773669015194,334,-143,0,степ
1773669015194,334,-96,0,степ
1773669015194,334,-98,0,степ
1773669015194,334,-118,0,степ
1773669015202,334,-88,0,степ
1773669015202,334,-69,0,степ
1773669015202,334,-108,0,степ
1773669015202,334,-123,0,степ
1773669015202,334,-91,0,степ
1773669015202,334,-88,0,степ
1773669015202,334,-108,0,степ
1773669015202,334,-147,0,степ
1773669015202,334,-226,0,степ
1773669015210,334,-162,0,степ
1773669015210,334,224,0,степ
1773669015210,334,720,0,степ
1773669015210,334,890,0,степ
1773669015210,334,547,0,степ
1773669015210,334,39,0,степ
1773669015210,334,-162,0,степ
1773669015210,334,-133,0,степ
1773669015210,334,-160,0,степ
1773669015210,337,-160,0,степ
1773669015286,342,-160,0,степ
1773669015386,345,-160,0,степ
1773669015477,335,-160,0,степ
1773669015597,333,-160,0,степ
1773669015641,333,-197,0,степ
1773669015648,333,-152,0,степ
1773669015648,333,-135,0,степ
1773669015648,333,-165,0,степ
1773669015648,333,-147,0,степ
1773669015648,333,-138,0,степ
1773669015648,333,-160,0,степ
1773669015648,333,-147,0,степ
1773669015656,333,-140,0,степ
1773669015656,333,-135,0,степ
1773669015656,333,-96,0,степ
1773669015656,333,-98,0,степ
1773669015656,333,-123,0,степ
1773669015656,333,-103,0,степ
1773669015656,333,-73,0,степ
1773669015656,333,-61,0,степ
1773669015656,333,-54,0,степ
1773669015664,333,-46,0,степ
1773669015664,333,-24,0,степ
1773669015664,333,-4,0,степ
1773669015664,333,-12,0,степ
1773669015664,333,-17,0,степ
1773669015664,333,-12,0,степ
1773669015664,333,-17,0,степ
1773669015664,333,-44,0,степ
1773669015664,333,-71,0,степ
1773669015672,333,-78,0,степ
1773669015672,333,-88,0,степ
1773669015672,333,-113,0,степ
1773669015672,333,-135,0,степ
1773669015672,333,-118,0,степ
1773669015672,333,-83,0,степ
1773669015672,333,-103,0,степ
1773669015672,333,-130,0,степ
1773669015672,333,-88,0,степ
1773669015672,333,-66,0,степ
1773669015680,333,-86,0,степ
1773669015680,333,-64,0,степ
1773669015680,333,-44,0,степ
1773669015680,333,-73,0,степ
1773669015680,333,-76,0,степ
1773669015680,333,-17,0,степ
1773669015680,333,27,0,степ
1773669015680,333,7,0,степ
1773669015680,333,-27,0,степ
1773669015680,333,-22,0,степ
1773669015688,333,-9,0,степ
1773669015688,333,-39,0,степ
1773669015688,333,-73,0,степ
1773669015688,333,-61,0,степ
1773669015688,333,-69,0,степ
1773669015688,333,-115,0,степ
1773669015688,333,-125,0,степ
1773669015688,333,-165,0,степ
1773669015688,333,-212,0,степ
1773669015688,333,-14,0,степ
1773669015688,333,438,0,степ
1773669015688,333,796,0,степ
1773669015688,333,715,0,степ
1773669015688,333,231,0,степ
1773669015688,333,-155,0,степ
1773669015688,333,-160,0,степ
1773669015688,333,-108,0,степ
1773669015688,333,-192,0,степ
1773669015688,333,-214,0,степ
1773669015688,333,-152,0,степ
1773669015704,333,-140,0,степ
1773669015704,333,-167,0,степ
1773669015704,333,-175,0,степ
1773669015704,333,-177,0,степ
1773669015704,333,-167,0,степ
1773669015704,333,-125,0,степ
1773669015704,333,-101,0,степ
1773669015704,333,-101,0,степ
1773669015794,333,-101,0,степ
1773669015886,332,-101,0,степ
1773669015986,331,-101,0,степ
1773669016086,332,-101,0,степ
1773669016186,332,-91,0,степ
1773669016186,332,-71,0,степ
1773669016186,332,-61,0,степ
1773669016186,332,-61,0,степ
1773669016186,332,-91,0,степ
1773669016186,332,-152,0,степ
1773669016186,332,-192,0,степ
1773669016186,332,-182,0,степ
1773669016186,332,-140,0,степ
1773669016186,332,-101,0,степ
1773669016186,332,-83,0,степ
1773669016186,332,-66,0,степ
1773669016186,332,-54,0,степ
1773669016186,332,-59,0,степ
1773669016186,332,-66,0,степ
1773669016186,332,-71,0,степ
1773669016186,332,-91,0,степ
1773669016202,332,-128,0,степ
1773669016202,332,-175,0,степ
1773669016202,332,-192,0,степ
1773669016202,332,-172,0,степ
1773669016202,332,-162,0,степ
1773669016202,332,-170,0,степ
1773669016202,332,-170,0,степ
1773669016202,332,-147,0,степ
1773669016202,332,-138,0,степ
1773669016202,332,-162,0,степ
1773669016202,332,-165,0,степ
1773669016202,332,-138,0,степ
1773669016202,332,-135,0,степ
1773669016202,332,-133,0,степ
1773669016202,332,-103,0,степ
1773669016202,332,-101,0,степ
1773669016202,332,-113,0,степ
1773669016202,332,-91,0,степ
1773669016218,332,-86,0,степ
1773669016219,332,-113,0,степ
1773669016219,332,-98,0,степ
1773669016219,332,-78,0,степ
1773669016219,332,-101,0,степ
1773669016219,332,-120,0,степ
1773669016219,332,-108,0,степ
1773669016219,332,-140,0,степ
1773669016219,332,-236,0,степ
1773669016227,332,-162,0,степ
1773669016227,332,199,0,степ
1773669016227,332,581,0,степ
1773669016227,332,613,0,степ
1773669016227,332,226,0,степ
1773669016227,332,-172,0,степ
1773669016227,332,-214,0,степ
1773669016227,332,-138,0,степ
1773669016227,332,-192,0,степ
1773669016227,332,-224,0,степ
1773669016237,332,-187,0,степ
1773669016237,332,-180,0,степ
1773669016237,332,-189,0,степ
1773669016237,332,-182,0,степ
1773669016237,332,-175,0,степ
1773669016237,332,-167,0,степ
1773669016245,332,-165,0,степ
1773669016245,332,-167,0,степ
1773669016245,332,-165,0,степ
1773669016245,332,-150,0,степ
1773669016245,332,-138,0,степ
1773669016245,332,-138,0,степ
1773669016245,332,-130,0,степ
1773669016245,332,-113,0,степ
1773669016245,332,-103,0,степ
1773669016245,332,-98,0,степ
1773669016253,332,-81,0,степ
1773669016253,332,-54,0,степ
1773669016253,332,-41,0,степ
1773669016253,334,-41,0,степ
1773669016284,332,-41,0,степ
1773669016383,333,-41,0,степ
1773669016484,332,-41,0,степ
1773669016576,332,-41,0,степ
1773669016701,332,-41,0,степ
1773669016720,332,-49,0,степ
1773669016728,332,-56,0,степ
1773669016728,332,-54,0,степ
1773669016728,332,-54,0,степ
1773669016728,332,-76,0,степ
1773669016728,332,-106,0,степ
1773669016728,332,-128,0,степ
1773669016728,332,-162,0,степ
1773669016728,332,-189,0,степ
1773669016736,332,-189,0,степ
1773669016736,332,-182,0,степ
1773669016738,332,-187,0,степ
1773669016738,332,-177,0,степ
1773669016738,332,-157,0,степ
1773669016738,332,-145,0,степ
1773669016738,332,-150,0,степ
1773669016738,332,-155,0,степ
1773669016738,332,-138,0,степ
1773669016738,332,-106,0,степ
1773669016738,332,-96,0,степ
1773669016738,332,-115,0,степ
1773669016738,332,-130,0,степ
1773669016738,332,-125,0,степ
1773669016738,332,-113,0,степ
1773669016738,332,-110,0,степ
1773669016738,332,-123,0,степ
1773669016752,332,-130,0,степ
1773669016752,332,-125,0,степ
1773669016752,332,-133,0,степ
1773669016752,332,-150,0,степ
1773669016752,332,-140,0,степ
1773669016752,332,-143,0,степ
1773669016752,332,-229,0,степ
1773669016752,332,-234,0,степ
1773669016752,332,54,0,степ
1773669016752,332,505,0,степ
1773669016760,332,717,0,степ
1773669016760,332,453,0,степ
1773669016760,332,-17,0,степ
1773669016760,332,-207,0,степ
1773669016760,332,-160,0,степ
1773669016760,332,-187,0,степ
1773669016760,332,-229,0,степ
1773669016760,332,-192,0,степ
1773669016760,332,-175,0,степ
1773669016760,332,-180,0,степ
1773669016760,332,-162,0,степ
1773669016768,332,-152,0,степ
1773669016768,332,-152,0,степ
1773669016768,332,-145,0,степ
1773669016768,332,-133,0,степ
1773669016768,332,-128,0,степ
1773669016768,332,-120,0,степ
1773669016768,332,-113,0,степ
1773669016768,332,-108,0,степ
1773669016768,332,-98,0,степ
1773669016776,332,-73,0,степ
1773669016776,332,-64,0,степ
1773669016776,332,-56,0,степ
1773669016776,332,-36,0,степ
1773669016776,332,-17,0,степ
1773669016776,332,-14,0,степ
1773669016776,332,-2,0,степ
1773669016776,332,7,0,степ
1773669016776,332,-7,0,степ
1773669016776,332,-27,0,степ
1773669016776,332,-36,0,степ
1773669016784,332,-66,0,степ
1773669016784,332,-103,0,степ
1773669016784,332,-123,0,степ
1773669016784,332,-143,0,степ
1773669016784,332,-162,0,степ
1773669016784,332,-167,0,степ
1773669016792,332,-167,0,степ
1773669016901,331,-167,0,степ
1773669016994,334,-167,0,степ
1773669017083,331,-167,0,степ
1773669017200,331,-167,0,степ
1773669017293,329,-167,0,степ
1773669017306,329,-170,0,степ
1773669017306,329,-170,0,степ
1773669017306,329,-160,0,степ
1773669017306,329,-152,0,степ
1773669017306,329,-160,0,степ
1773669017306,329,-167,0,степ
1773669017319,329,-165,0,степ
1773669017319,329,-160,0,степ
1773669017319,329,-152,0,степ
1773669017319,329,-138,0,степ
1773669017319,329,-133,0,степ
1773669017319,329,-128,0,степ
1773669017319,329,-120,0,степ
1773669017319,329,-120,0,степ
1773669017327,329,-123,0,степ
1773669017327,329,-123,0,степ
1773669017327,329,-113,0,степ
1773669017327,329,-108,0,степ
1773669017327,329,-113,0,степ
1773669017327,329,-113,0,степ
1773669017327,329,-147,0,степ
1773669017335,329,-244,0,степ
1773669017335,329,-244,0,степ
1773669017335,329,56,0,степ
1773669017338,329,520,0,степ
1773669017338,329,749,0,степ
1773669017338,329,490,0,степ
1773669017338,329,27,0,степ
1773669017338,329,-165,0,степ
1773669017338,329,-135,0,степ
1773669017338,329,-172,0,степ
1773669017338,329,-219,0,степ
1773669017338,329,-187,0,степ
1773669017338,329,-177,0,степ
1773669017338,329,-197,0,степ
1773669017338,329,-182,0,степ
1773669017338,329,-162,0,степ
1773669017352,329,-155,0,степ
1773669017352,329,-155,0,степ
1773669017352,329,-165,0,степ
1773669017352,329,-162,0,степ
1773669017352,329,-143,0,степ
1773669017352,329,-128,0,степ
1773669017352,329,-123,0,степ
1773669017360,329,-115,0,степ
1773669017360,329,-108,0,степ
1773669017360,329,-98,0,степ
1773669017360,329,-81,0,степ
1773669017360,329,-59,0,степ
1773669017360,329,-46,0,степ
1773669017360,329,-34,0,степ
1773669017360,329,-24,0,степ
1773669017368,329,-12,0,степ
1773669017369,329,-9,0,степ
1773669017369,329,-24,0,степ
1773669017371,329,-49,0,степ
1773669017372,329,-78,0,степ
1773669017372,329,-115,0,степ
1773669017372,329,-155,0,степ
1773669017372,329,-155,0,степ
1773669017372,329,-143,0,степ
1773669017372,329,-152,0,степ
1773669017372,329,-162,0,степ
1773669017372,329,-155,0,степ
1773669017372,329,-152,0,степ
1773669017372,329,-143,0,степ
1773669017372,329,-123,0,степ
1773669017372,329,-123,0,степ
1773669017380,329,-135,0,степ
1773669017380,329,-133,0,степ
1773669017380,329,-130,0,степ
1773669017380,329,-125,0,степ
1773669017380,329,-110,0,степ
1773669017386,328,-110,0,степ
1773669017484,327,-110,0,степ
1773669017584,329,-110,0,степ
1773669017678,330,-110,0,степ
1773669017801,329,-110,0,степ
1773669017885,329,-106,0,степ
1773669017885,329,-98,0,степ
1773669017900,329,-81,0,степ
1773669017900,329,-81,0,степ
1773669017900,329,-88,0,степ
1773669017903,329,-81,0,степ
1773669017903,329,-69,0,степ
1773669017903,329,-59,0,степ
1773669017903,329,-66,0,степ
1773669017903,329,-96,0,степ
1773669017903,329,-157,0,степ
1773669017908,329,-209,0,степ
1773669017908,329,-88,0,степ
1773669017908,329,286,0,степ
1773669017908,329,695,0,степ
1773669017908,329,771,0,степ
1773669017914,329,374,0,степ
1773669017914,329,-101,0,степ
1773669017914,329,-194,0,степ
1773669017914,329,-125,0,степ
1773669017914,329,-219,0,степ
1773669017920,329,-258,0,степ
1773669017920,329,-162,0,степ
1773669017920,329,-143,0,степ
1773669017920,329,-184,0,степ
1773669017920,329,-172,0,степ
1773669017920,329,-135,0,степ
1773669017926,329,-125,0,степ
1773669017926,329,-143,0,степ
1773669017926,329,-145,0,степ
1773669017926,329,-123,0,степ
1773669017926,329,-108,0,степ
1773669017926,329,-110,0,степ
1773669017926,329,-106,0,степ
1773669017926,329,-78,0,степ
1773669017926,329,-54,0,степ
1773669017926,329,-51,0,степ
1773669017926,329,-46,0,степ
1773669017926,329,-22,0,степ
1773669017934,329,-7,0,степ
1773669017936,329,0,0,степ
1773669017936,329,2,0,степ
1773669017936,329,-9,0,степ
1773669017936,329,-22,0,степ
1773669017936,329,-27,0,степ
1773669017936,329,-41,0,степ
1773669017944,329,-76,0,степ
1773669017944,329,-108,0,степ
1773669017944,329,-120,0,степ
1773669017944,329,-133,0,степ
1773669017944,329,-150,0,степ
1773669017944,329,-157,0,степ
1773669017944,329,-152,0,степ
1773669017944,329,-140,0,степ
1773669017952,329,-133,0,степ
1773669017952,329,-143,0,степ
1773669017952,329,-160,0,степ
1773669017952,329,-157,0,степ
1773669017952,329,-145,0,степ
1773669017952,329,-140,0,степ
1773669017952,329,-143,0,степ
1773669017952,329,-130,0,степ
1773669017952,329,-115,0,степ
1773669017960,329,-115,0,степ
1773669017960,329,-108,0,степ
1773669017960,329,-101,0,степ
1773669017960,329,-110,0,степ
1773669017960,329,-118,0,степ
1773669017960,329,-108,0,степ
1773669017960,329,-108,0,степ
1773669017960,329,-103,0,степ
1773669017960,329,-83,0,степ
1773669017969,329,-93,0,степ
1773669017969,330,-93,0,степ
1773669017996,329,-93,0,степ
1773669018093,330,-93,0,степ
1773669018183,331,-93,0,степ
1773669018293,329,-93,0,степ
1773669018397,330,-93,0,степ
1773669018436,330,-187,0,степ
1773669018436,330,-266,0,степ
1773669018436,330,-130,0,степ
1773669018440,330,278,0,степ
1773669018440,330,739,0,степ
1773669018440,330,848,0,степ
1773669018440,330,446,0,степ
1773669018440,330,-73,0,степ
1773669018440,330,-221,0,степ
1773669018440,330,-160,0,степ
1773669018440,330,-209,0,степ
1773669018440,330,-249,0,степ
1773669018440,330,-202,0,степ
1773669018440,330,-192,0,степ
1773669018440,330,-209,0,степ
1773669018440,330,-194,0,степ
1773669018440,330,-187,0,степ
1773669018452,330,-197,0,степ
1773669018452,330,-184,0,степ
1773669018452,330,-170,0,степ
1773669018452,330,-175,0,степ
1773669018452,330,-175,0,степ
1773669018452,330,-155,0,степ
1773669018452,330,-138,0,степ
1773669018452,330,-135,0,степ
1773669018452,330,-133,0,степ
1773669018452,330,-120,0,степ
1773669018460,330,-96,0,степ
1773669018460,330,-64,0,степ
1773669018460,330,-44,0,степ
1773669018460,330,-41,0,степ
1773669018460,330,-44,0,степ
1773669018460,330,-44,0,степ
1773669018460,330,-44,0,степ
1773669018460,330,-69,0,степ
1773669018460,330,-101,0,степ
1773669018460,330,-125,0,степ
1773669018468,330,-152,0,степ
1773669018469,330,-182,0,степ
1773669018469,330,-189,0,степ
1773669018469,330,-172,0,степ
1773669018469,330,-165,0,степ
1773669018469,330,-187,0,степ
1773669018469,330,-189,0,степ
1773669018469,330,-172,0,степ
1773669018469,330,-175,0,степ
1773669018469,330,-187,0,степ
1773669018469,330,-187,0,степ
1773669018477,330,-194,0,степ
1773669018477,330,-207,0,степ
1773669018477,330,-204,0,степ
1773669018477,330,-207,0,степ
1773669018477,330,-221,0,степ
1773669018477,330,-216,0,степ
1773669018477,330,-167,0,степ
1773669018477,330,-140,0,степ
1773669018477,330,-152,0,степ
1773669018477,330,-165,0,степ
1773669018477,330,-170,0,степ
1773669018485,330,-165,0,степ
1773669018485,330,-165,0,степ
1773669018485,330,-180,0,степ
1773669018485,330,-184,0,степ
1773669018485,330,-177,0,степ
1773669018485,330,-189,0,степ
1773669018485,330,-276,0,степ
1773669018485,330,-340,0,степ
1773669018485,330,-128,0,степ
1773669018493,330,360,0,степ
1773669018493,330,781,0,степ
1773669018493,330,764,0,степ
1773669018493,330,315,0,степ
1773669018493,330,-135,0,степ
1773669018493,330,-135,0,степ
1773669018588,514,-135,0,степ
1773669018687,498,-135,0,степ
1773669018784,415,-135,0,степ
1773669018868,367,-135,0,степ
1773669018969,367,-256,0,степ
1773669018969,367,-224,0,степ
1773669018969,367,-249,0,степ
1773669018969,367,-253,0,степ
1773669018969,367,-221,0,степ
1773669018969,367,-216,0,степ
1773669018969,367,-221,0,степ
1773669018985,367,-214,0,степ
1773669018985,367,-207,0,степ
1773669018985,367,-199,0,степ
1773669018985,367,-194,0,степ
1773669018985,367,-189,0,степ
1773669018985,367,-180,0,степ
1773669018985,367,-175,0,степ
1773669018985,367,-147,0,степ
1773669018985,367,-125,0,степ
1773669018985,367,-145,0,степ
1773669018985,367,-135,0,степ
1773669018985,367,-88,0,степ
1773669018985,367,-71,0,степ
1773669018985,367,-64,0,степ
1773669018985,367,-39,0,степ
1773669018985,367,-46,0,степ
1773669018985,367,-56,0,степ
1773669018985,367,-39,0,степ
1773669018985,367,-32,0,степ
1773669019000,367,-49,0,степ
1773669019000,367,-54,0,степ
1773669019000,367,-61,0,степ
1773669019000,367,-71,0,степ
1773669019000,367,-76,0,степ
1773669019000,367,-113,0,степ
1773669019000,367,-157,0,степ
1773669019000,367,-135,0,степ
1773669019000,367,-64,0,степ
1773669019000,367,-54,0,степ
1773669019000,367,-86,0,степ
1773669019000,367,-91,0,степ
1773669019000,367,-103,0,степ
1773669019000,367,-106,0,степ
1773669019000,367,-81,0,степ
1773669019000,367,-93,0,степ
1773669019016,367,-120,0,степ
1773669019016,367,-120,0,степ
1773669019016,367,-110,0,степ
1773669019018,367,-108,0,степ
1773669019018,367,-110,0,степ
1773669019018,367,-81,0,степ
1773669019018,367,-34,0,степ
1773669019018,367,-54,0,степ
1773669019018,367,-103,0,степ
1773669019018,367,-86,0,степ
1773669019018,367,-49,0,степ
1773669019018,367,-73,0,степ
1773669019026,367,-96,0,степ
1773669019026,367,-54,0,степ
1773669019026,367,-54,0,степ
1773669019026,367,-147,0,степ
1773669019026,367,-231,0,степ
1773669019026,367,-140,0,степ
1773669019026,367,214,0,степ
1773669019026,367,700,0,степ
1773669019026,367,904,0,степ
1773669019026,367,549,0,степ
1773669019035,367,34,0,степ
1773669019036,367,-120,0,степ
1773669019036,367,-118,0,степ
1773669019036,367,-212,0,степ
1773669019036,367,-209,0,степ
1773669019036,367,-125,0,степ
1773669019036,367,-113,0,степ
1773669019036,367,-118,0,степ
1773669019036,367,-98,0,степ
1773669019044,321,-98,0,степ
1773669019071,427,-98,0,степ
1773669019196,436,-98,0,степ
1773669019301,366,-98,0,степ
1773669019400,375,-98,0,степ
1773669019485,322,-98,0,степ
1773669019592,329,-98,0,степ
1773669019592,329,-83,0,степ
1773669019608,329,-81,0,степ
1773669019608,329,-110,0,степ
1773669019608,329,-118,0,степ
1773669019608,329,-9,0,степ
1773669019608,329,81,0,степ
1773669019608,329,7,0,степ
1773669019608,329,-54,0,степ
1773669019608,329,-7,0,степ
1773669019608,329,4,0,степ
1773669019608,329,-7,0,степ
1773669019608,329,27,0,степ
1773669019608,329,61,0,степ
1773669019618,329,46,0,степ
1773669019618,329,24,0,степ
1773669019618,329,7,0,степ
1773669019618,329,-7,0,степ
1773669019618,329,4,0,степ
1773669019618,329,2,0,степ
1773669019618,329,-19,0,степ
1773669019618,329,-24,0,степ
1773669019626,329,-44,0,степ
1773669019626,329,-34,0,степ
1773669019626,329,7,0,степ
1773669019626,329,-9,0,степ
1773669019626,329,0,0,степ
1773669019626,329,24,0,степ
1773669019626,329,-88,0,степ
1773669019626,329,-236,0,степ
1773669019626,329,-278,0,степ
1773669019626,329,-281,0,степ
1773669019635,329,-258,0,степ
1773669019635,329,-214,0,степ
1773669019637,329,-202,0,степ
1773669019637,329,-180,0,степ
1773669019637,329,-130,0,степ
1773669019637,329,-113,0,степ
1773669019637,329,-108,0,степ
1773669019637,329,-101,0,степ
1773669019637,329,-106,0,степ
1773669019637,329,-108,0,степ
1773669019637,329,-101,0,степ
1773669019637,329,-130,0,степ
1773669019637,329,-170,0,степ
1773669019637,329,-162,0,степ
1773669019637,329,-147,0,степ
1773669019637,329,-170,0,степ
1773669019637,329,-177,0,степ
1773669019637,329,-170,0,степ
1773669019652,329,-216,0,степ
1773669019652,329,-175,0,степ
1773669019652,329,147,0,степ
1773669019652,329,579,0,степ
1773669019652,329,697,0,степ
1773669019652,329,323,0,степ
1773669019652,329,-138,0,степ
1773669019652,329,-224,0,степ
1773669019660,329,-143,0,степ
1773669019660,329,-194,0,степ
1773669019660,329,-234,0,степ
1773669019660,329,-199,0,степ
1773669019660,329,-202,0,степ
1773669019660,329,-209,0,степ
1773669019660,329,-189,0,степ
1773669019660,329,-182,0,степ
1773669019660,329,-172,0,степ
1773669019668,329,-150,0,степ
1773669019668,329,-140,0,степ
1773669019668,329,-135,0,степ
1773669019668,329,-125,0,степ
1773669019668,329,-123,0,степ
1773669019668,329,-113,0,степ
1773669019668,329,-88,0,степ
1773669019688,334,-88,0,степ
1773669019784,334,-88,0,степ
1773669019885,335,-88,0,степ
1773669019984,334,-88,0,степ
1773669020085,334,-88,0,степ
1773669020101,334,-66,0,степ
1773669020101,334,-59,0,степ
1773669020101,334,-44,0,степ
1773669020101,334,-14,0,степ
1773669020101,334,-7,0,степ
1773669020109,334,-9,0,степ
1773669020109,334,-4,0,степ
1773669020109,334,-7,0,степ
1773669020109,334,-19,0,степ
1773669020109,334,-39,0,степ
1773669020109,334,-61,0,степ
1773669020109,334,-78,0,степ
1773669020109,334,-101,0,степ
1773669020109,334,-130,0,степ
1773669020118,334,-152,0,степ
1773669020118,334,-175,0,степ
1773669020118,334,-182,0,степ
1773669020118,334,-172,0,степ
1773669020118,334,-175,0,степ
1773669020118,334,-175,0,степ
1773669020118,334,-160,0,степ
1773669020118,334,-155,0,степ
1773669020118,334,-167,0,степ
1773669020126,334,-170,0,степ
1773669020126,334,-162,0,степ
1773669020126,334,-167,0,степ
1773669020126,334,-172,0,степ
1773669020126,334,-160,0,степ
1773669020126,334,-150,0,степ
1773669020126,334,-147,0,степ
1773669020126,334,-143,0,степ
1773669020126,334,-133,0,степ
1773669020135,334,-135,0,степ
1773669020135,334,-150,0,степ
1773669020137,334,-145,0,степ
1773669020137,334,-120,0,степ
1773669020137,334,-113,0,степ
1773669020137,334,-128,0,степ
1773669020137,334,-140,0,степ
1773669020137,334,-184,0,степ
1773669020137,334,-229,0,степ
1773669020137,334,-71,0,степ
1773669020137,334,337,0,степ
1773669020137,334,710,0,степ
1773669020137,334,678,0,степ
1773669020137,334,221,0,степ
1773669020137,334,-167,0,степ
1773669020137,334,-177,0,степ
1773669020137,334,-128,0,степ
1773669020137,334,-204,0,степ
1773669020137,334,-221,0,степ
1773669020153,334,-189,0,степ
1773669020153,334,-197,0,степ
1773669020153,334,-197,0,степ
1773669020153,334,-182,0,степ
1773669020153,334,-182,0,степ
1773669020153,334,-187,0,степ
1773669020153,334,-177,0,степ
1773669020153,334,-157,0,степ
1773669020153,334,-143,0,степ
1773669020153,334,-138,0,степ
1773669020161,334,-128,0,степ
1773669020161,334,-113,0,степ
1773669020161,334,-106,0,степ
1773669020161,334,-96,0,степ
1773669020161,334,-76,0,степ
1773669020161,334,-64,0,степ
1773669020161,334,-61,0,степ
1773669020161,334,-39,0,степ
1773669020161,334,-17,0,степ
1773669020169,334,-14,0,степ
1773669020169,334,-22,0,степ
1773669020169,334,-32,0,степ
1773669020175,333,-32,0,степ
1773669020293,337,-32,0,степ
1773669020400,337,-32,0,степ
1773669020500,339,-32,0,степ
1773669020569,344,-32,0,степ
1773669020685,344,-49,0,степ
1773669020685,344,-71,0,степ
1773669020690,344,-103,0,степ
1773669020690,344,-135,0,степ
1773669020690,344,-160,0,степ
1773669020690,344,-177,0,степ
1773669020690,344,-184,0,степ
1773669020690,344,-184,0,степ
1773669020690,344,-184,0,степ
1773669020690,344,-180,0,степ
1773669020690,344,-175,0,степ
1773669020690,344,-175,0,степ
1773669020699,344,-175,0,степ
1773669020699,344,-167,0,степ
1773669020699,344,-160,0,степ
1773669020699,344,-160,0,степ
1773669020699,344,-162,0,степ
1773669020699,344,-155,0,степ
1773669020699,344,-145,0,степ
1773669020699,344,-135,0,степ
1773669020699,344,-125,0,степ
1773669020699,344,-128,0,степ
1773669020699,344,-130,0,степ
1773669020699,344,-123,0,степ
1773669020699,344,-123,0,степ
1773669020699,344,-133,0,степ
1773669020699,344,-138,0,степ
1773669020699,344,-138,0,степ
1773669020699,344,-138,0,степ
1773669020699,344,-177,0,степ
1773669020714,344,-266,0,степ
1773669020714,344,-224,0,степ
1773669020714,344,113,0,степ
1773669020714,344,564,0,степ
1773669020718,344,712,0,степ
1773669020718,344,382,0,степ
1773669020718,344,-69,0,степ
1773669020718,344,-212,0,степ
1773669020718,344,-175,0,степ
1773669020718,344,-221,0,степ
1773669020718,344,-256,0,степ
1773669020718,344,-212,0,степ
1773669020718,344,-197,0,степ
1773669020727,344,-204,0,степ
1773669020727,344,-192,0,степ
1773669020727,344,-187,0,степ
1773669020727,344,-189,0,степ
1773669020727,344,-180,0,степ
1773669020727,344,-175,0,степ
1773669020727,344,-172,0,степ
1773669020727,344,-157,0,степ
1773669020727,344,-138,0,степ
1773669020734,344,-130,0,степ
1773669020735,344,-128,0,степ
1773669020735,344,-115,0,степ
1773669020735,344,-96,0,степ
1773669020735,344,-78,0,степ
1773669020735,344,-61,0,степ
1773669020735,344,-54,0,степ
1773669020735,344,-56,0,степ
1773669020735,344,-46,0,степ
1773669020735,344,-34,0,степ
1773669020735,344,-36,0,степ
1773669020743,344,-56,0,степ
1773669020743,344,-71,0,степ
1773669020743,344,-91,0,степ
1773669020743,344,-135,0,степ
1773669020743,344,-182,0,степ
1773669020743,344,-197,0,степ
1773669020743,344,-197,0,степ
1773669020743,344,-212,0,степ
1773669020743,344,-226,0,степ
1773669020743,344,-224,0,степ
1773669020751,339,-224,0,степ
1773669020793,345,-224,0,степ
1773669020884,342,-224,0,степ
1773669020993,342,-224,0,степ
1773669021084,358,-224,0,степ
1773669021176,359,-224,0,степ
1773669021268,359,-207,0,степ
1773669021268,359,-199,0,степ
1773669021268,359,-199,0,степ
1773669021268,359,-197,0,степ
1773669021268,359,-182,0,степ
1773669021268,359,-180,0,степ
1773669021268,359,-182,0,степ
1773669021268,359,-177,0,степ
1773669021268,359,-170,0,степ
1773669021268,359,-165,0,степ
1773669021268,359,-155,0,степ
1773669021268,359,-140,0,степ
1773669021268,359,-135,0,степ
1773669021284,359,-125,0,степ
1773669021284,359,-108,0,степ
1773669021284,359,-113,0,степ
1773669021284,359,-120,0,степ
1773669021284,359,-101,0,степ
1773669021284,359,-86,0,степ
1773669021284,359,-103,0,степ
1773669021284,359,-180,0,степ
1773669021284,359,-251,0,степ
1773669021284,359,-106,0,степ
1773669021284,359,315,0,степ
1773669021284,359,742,0,степ
1773669021284,359,779,0,степ
1773669021284,359,332,0,степ
1773669021284,359,-135,0,степ
1773669021284,359,-204,0,степ
1773669021284,359,-130,0,степ
1773669021300,359,-172,0,степ
1773669021300,359,-192,0,степ
1773669021302,359,-160,0,степ
1773669021302,359,-157,0,степ
1773669021302,359,-147,0,степ
1773669021302,359,-113,0,степ
1773669021302,359,-93,0,степ
1773669021302,359,-98,0,степ
1773669021310,359,-96,0,степ
1773669021310,359,-88,0,степ
1773669021310,359,-93,0,степ
1773669021310,359,-101,0,степ
