timestamp,gsr,ecg,interval,label
1773868199655,325,-376,0,скакалка
1773868199744,326,-376,0,скакалка
1773868199859,320,-376,0,скакалка
1773868199897,320,-434,0,скакалка
1773868199897,320,-296,0,скакалка
1773868199900,320,92,0,скакалка
1773868199900,320,366,0,скакалка
1773868199900,320,251,0,скакалка
1773868199900,320,47,0,скакалка
1773868199900,320,-142,0,скакалка
1773868199900,320,-426,0,скакалка
1773868199900,320,-548,0,скакалка
1773868199900,320,-473,0,скакалка
1773868199900,320,-461,0,скакалка
1773868199900,320,-493,0,скакалка
1773868199900,320,-473,0,скакалка
1773868199900,320,-458,0,скакалка
1773868199900,320,-478,0,скакалка
1773868199900,320,-478,0,скакалка
1773868199900,320,-461,0,скакалка
1773868199900,320,-461,0,скакалка
1773868199900,320,-466,0,скакалка
1773868199915,320,-463,0,скакалка
1773868199915,320,-458,0,скакалка
1773868199915,320,-461,0,скакалка
1773868199915,320,-466,0,скакалка
1773868199915,320,-466,0,скакалка
1773868199915,320,-466,0,скакалка
1773868199915,320,-473,0,скакалка
1773868199915,320,-468,0,скакалка
1773868199915,320,-458,0,скакалка
1773868199915,320,-453,0,скакалка
1773868199915,320,-441,0,скакалка
1773868199915,320,-409,0,скакалка
1773868199915,320,-379,0,скакалка
1773868199915,320,-374,0,скакалка
1773868199915,320,-364,0,скакалка
1773868199915,320,-349,0,скакалка
1773868199915,320,-346,0,скакалка
1773868199915,320,-346,0,скакалка
1773868199915,320,-341,0,скакалка
1773868199915,320,-324,0,скакалка
1773868199915,320,-311,0,скакалка
1773868199915,320,-321,0,скакалка
1773868199915,320,-336,0,скакалка
1773868199915,320,-339,0,скакалка
1773868199915,320,-336,0,скакалка
1773868199915,320,-336,0,скакалка
1773868199915,320,-334,0,скакалка
1773868199915,320,-326,0,скакалка
1773868199929,320,-326,0,скакалка
1773868199929,320,-329,0,скакалка
1773868199929,320,-326,0,скакалка
1773868199929,320,-329,0,скакалка
1773868199929,320,-334,0,скакалка
1773868199929,320,-341,0,скакалка
1773868199929,320,-354,0,скакалка
1773868199929,320,-359,0,скакалка
1773868199929,320,-361,0,скакалка
1773868199929,320,-359,0,скакалка
1773868199929,320,-339,0,скакалка
1773868199929,320,-301,0,скакалка
1773868199929,320,-269,0,скакалка
1773868199929,320,-266,0,скакалка
1773868199929,320,-289,0,скакалка
1773868199937,320,-299,0,скакалка
1773868199937,320,-286,0,скакалка
1773868199937,320,-284,0,скакалка
1773868199937,320,-289,0,скакалка
1773868199937,320,-284,0,скакалка
1773868199937,320,-296,0,скакалка
1773868199937,320,-371,0,скакалка
1773868199937,320,-389,0,скакалка
1773868199937,320,-127,0,скакалка
1773868199937,320,321,0,скакалка
1773868199937,320,483,0,скакалка
1773868199978,321,483,0,скакалка
1773868200078,315,483,0,скакалка
1773868200153,316,483,0,скакалка
1773868200252,319,483,0,скакалка
1773868200344,319,483,0,скакалка
1773868200436,319,274,0,скакалка
1773868200436,319,72,0,скакалка
1773868200439,319,-147,0,скакалка
1773868200439,319,-399,0,скакалка
1773868200440,319,-416,0,скакалка
1773868200441,319,-336,0,скакалка
1773868200441,319,-364,0,скакалка
1773868200441,319,-389,0,скакалка
1773868200441,319,-364,0,скакалка
1773868200441,319,-354,0,скакалка
1773868200441,319,-361,0,скакалка
1773868200441,319,-361,0,скакалка
1773868200441,319,-351,0,скакалка
1773868200441,319,-351,0,скакалка
1773868200441,319,-369,0,скакалка
1773868200441,319,-374,0,скакалка
1773868200441,319,-371,0,скакалка
1773868200447,319,-374,0,скакалка
1773868200448,319,-379,0,скакалка
1773868200448,319,-386,0,скакалка
1773868200448,319,-389,0,скакалка
1773868200448,319,-386,0,скакалка
1773868200448,319,-384,0,скакалка
1773868200448,319,-376,0,скакалка
1773868200448,319,-371,0,скакалка
1773868200448,319,-364,0,скакалка
1773868200448,319,-344,0,скакалка
1773868200448,319,-331,0,скакалка
1773868200448,319,-321,0,скакалка
1773868200448,319,-304,0,скакалка
1773868200448,319,-294,0,скакалка
1773868200448,319,-296,0,скакалка
1773868200448,319,-299,0,скакалка
1773868200448,319,-304,0,скакалка
1773868200456,319,-304,0,скакалка
1773868200456,319,-296,0,скакалка
1773868200456,319,-296,0,скакалка
1773868200456,319,-299,0,скакалка
1773868200456,319,-286,0,скакалка
1773868200456,319,-281,0,скакалка
1773868200456,319,-296,0,скакалка
1773868200456,319,-294,0,скакалка
1773868200456,319,-279,0,скакалка
1773868200456,319,-279,0,скакалка
1773868200456,319,-284,0,скакалка
1773868200456,319,-284,0,скакалка
1773868200456,319,-284,0,скакалка
1773868200456,319,-289,0,скакалка
1773868200456,319,-301,0,скакалка
1773868200456,319,-314,0,скакалка
1773868200456,319,-324,0,скакалка
1773868200464,319,-324,0,скакалка
1773868200464,319,-306,0,скакалка
1773868200464,319,-276,0,скакалка
1773868200464,319,-249,0,скакалка
1773868200464,319,-231,0,скакалка
1773868200464,319,-236,0,скакалка
1773868200464,319,-251,0,скакалка
1773868200464,319,-254,0,скакалка
1773868200464,319,-241,0,скакалка
1773868200464,319,-241,0,скакалка
1773868200464,319,-244,0,скакалка
1773868200464,319,-251,0,скакалка
1773868200464,319,-311,0,скакалка
1773868200464,319,-354,0,скакалка
1773868200464,319,-179,0,скакалка
1773868200464,319,189,0,скакалка
1773868200464,319,381,0,скакалка
1773868200472,319,274,0,скакалка
1773868200472,319,147,0,скакалка
1773868200472,319,-39,0,скакалка
1773868200472,319,-319,0,скакалка
1773868200472,319,-396,0,скакалка
1773868200472,315,-396,0,скакалка
1773868200546,321,-396,0,скакалка
1773868200644,320,-396,0,скакалка
1773868200753,326,-396,0,скакалка
1773868200853,328,-396,0,скакалка
1773868200943,320,-396,0,скакалка
1773868201012,320,-331,0,скакалка
1773868201012,320,-339,0,скакалка
1773868201024,320,-359,0,скакалка
1773868201024,320,-331,0,скакалка
1773868201025,320,-321,0,скакалка
1773868201026,320,-326,0,скакалка
1773868201026,320,-314,0,скакалка
1773868201026,320,-311,0,скакалка
1773868201026,320,-321,0,скакалка
1773868201029,320,-326,0,скакалка
1773868201029,320,-321,0,скакалка
1773868201029,320,-321,0,скакалка
1773868201029,320,-324,0,скакалка
1773868201029,320,-334,0,скакалка
1773868201029,320,-339,0,скакалка
1773868201029,320,-336,0,скакалка
1773868201029,320,-334,0,скакалка
1773868201029,320,-331,0,скакалка
1773868201029,320,-324,0,скакалка
1773868201029,320,-321,0,скакалка
1773868201029,320,-321,0,скакалка
1773868201029,320,-311,0,скакалка
1773868201029,320,-296,0,скакалка
1773868201029,320,-294,0,скакалка
1773868201029,320,-299,0,скакалка
1773868201029,320,-294,0,скакалка
1773868201029,320,-281,0,скакалка
1773868201029,320,-276,0,скакалка
1773868201037,320,-279,0,скакалка
1773868201037,320,-276,0,скакалка
1773868201037,320,-271,0,скакалка
1773868201037,320,-274,0,скакалка
1773868201037,320,-281,0,скакалка
1773868201037,320,-281,0,скакалка
1773868201037,320,-274,0,скакалка
1773868201037,320,-274,0,скакалка
1773868201037,320,-281,0,скакалка
1773868201037,320,-281,0,скакалка
1773868201037,320,-279,0,скакалка
1773868201037,320,-276,0,скакалка
1773868201037,320,-274,0,скакалка
1773868201037,320,-274,0,скакалка
1773868201037,320,-276,0,скакалка
1773868201037,320,-284,0,скакалка
1773868201037,320,-296,0,скакалка
1773868201037,320,-306,0,скакалка
1773868201037,320,-316,0,скакалка
1773868201037,320,-319,0,скакалка
1773868201045,320,-304,0,скакалка
1773868201045,320,-269,0,скакалка
1773868201047,320,-229,0,скакалка
1773868201047,320,-217,0,скакалка
1773868201047,320,-244,0,скакалка
1773868201047,320,-269,0,скакалка
1773868201047,320,-251,0,скакалка
1773868201047,320,-234,0,скакалка
1773868201047,320,-251,0,скакалка
1773868201047,320,-259,0,скакалка
1773868201047,320,-254,0,скакалка
1773868201047,320,-289,0,скакалка
1773868201047,320,-294,0,скакалка
1773868201047,320,-149,0,скакалка
1773868201047,320,39,0,скакалка
1773868201047,320,72,0,скакалка
1773868201047,320,72,0,скакалка
1773868201047,320,144,0,скакалка
1773868201047,320,-12,0,скакалка
1773868201047,320,-301,0,скакалка
1773868201055,320,-356,0,скакалка
1773868201055,320,-309,0,скакалка
1773868201055,320,-341,0,скакалка
1773868201055,320,-349,0,скакалка
1773868201055,320,-311,0,скакалка
1773868201080,323,-311,0,скакалка
1773868201153,316,-311,0,скакалка
1773868201251,306,-311,0,скакалка
1773868201344,302,-311,0,скакалка
1773868201435,297,-311,0,скакалка
1773868201543,304,-311,0,скакалка
1773868201605,304,-316,0,скакалка
1773868201605,304,-326,0,скакалка
1773868201608,304,-311,0,скакалка
1773868201608,304,-306,0,скакалка
1773868201608,304,-314,0,скакалка
1773868201610,304,-314,0,скакалка
1773868201610,304,-311,0,скакалка
1773868201610,304,-314,0,скакалка
1773868201610,304,-314,0,скакалка
1773868201613,304,-311,0,скакалка
1773868201613,304,-326,0,скакалка
1773868201613,304,-341,0,скакалка
1773868201613,304,-336,0,скакалка
1773868201613,304,-331,0,скакалка
1773868201613,304,-334,0,скакалка
1773868201613,304,-339,0,скакалка
1773868201613,304,-341,0,скакалка
1773868201613,304,-331,0,скакалка
1773868201613,304,-326,0,скакалка
1773868201613,304,-349,0,скакалка
1773868201613,304,-364,0,скакалка
1773868201613,304,-356,0,скакалка
1773868201613,304,-356,0,скакалка
1773868201613,304,-369,0,скакалка
1773868201613,304,-361,0,скакалка
1773868201613,304,-356,0,скакалка
1773868201621,304,-361,0,скакалка
1773868201621,304,-359,0,скакалка
1773868201621,304,-351,0,скакалка
1773868201621,304,-349,0,скакалка
1773868201621,304,-349,0,скакалка
1773868201621,304,-346,0,скакалка
1773868201621,304,-346,0,скакалка
1773868201621,304,-349,0,скакалка
1773868201621,304,-356,0,скакалка
1773868201621,304,-359,0,скакалка
1773868201621,304,-349,0,скакалка
1773868201621,304,-351,0,скакалка
1773868201621,304,-366,0,скакалка
1773868201621,304,-376,0,скакалка
1773868201621,304,-389,0,скакалка
1773868201621,304,-406,0,скакалка
1773868201621,304,-416,0,скакалка
1773868201621,304,-404,0,скакалка
1773868201621,304,-381,0,скакалка
1773868201629,304,-356,0,скакалка
1773868201629,304,-336,0,скакалка
1773868201629,304,-341,0,скакалка
1773868201629,304,-364,0,скакалка
1773868201631,304,-369,0,скакалка
1773868201631,304,-356,0,скакалка
1773868201631,304,-356,0,скакалка
1773868201631,304,-361,0,скакалка
1773868201631,304,-359,0,скакалка
1773868201631,304,-374,0,скакалка
1773868201631,304,-391,0,скакалка
1773868201631,304,-291,0,скакалка
1773868201631,304,-94,0,скакалка
1773868201631,304,-14,0,скакалка
1773868201631,304,-47,0,скакалка
1773868201631,304,19,0,скакалка
1773868201631,304,-17,0,скакалка
1773868201631,304,-294,0,скакалка
1773868201631,304,-438,0,скакалка
1773868201631,304,-384,0,скакалка
1773868201631,304,-379,0,скакалка
1773868201631,304,-409,0,скакалка
1773868201639,304,-399,0,скакалка
1773868201639,304,-386,0,скакалка
1773868201639,304,-394,0,скакалка
1773868201639,304,-399,0,скакалка
1773868201639,304,-404,0,скакалка
1773868201639,304,-409,0,скакалка
1773868201642,303,-409,0,скакалка
1773868201742,294,-409,0,скакалка
1773868201859,270,-409,0,скакалка
1773868201952,268,-409,0,скакалка
1773868202053,286,-409,0,скакалка
1773868202097,286,-409,0,скакалка
1773868202103,286,-414,0,скакалка
1773868202103,286,-434,0,скакалка
1773868202103,286,-451,0,скакалка
1773868202103,286,-458,0,скакалка
1773868202103,286,-468,0,скакалка
1773868202103,286,-481,0,скакалка
1773868202103,286,-483,0,скакалка
1773868202103,286,-483,0,скакалка
1773868202103,286,-481,0,скакалка
1773868202103,286,-471,0,скакалка
1773868202103,286,-461,0,скакалка
1773868202103,286,-448,0,скакалка
1773868202103,286,-441,0,скакалка
1773868202103,286,-441,0,скакалка
1773868202103,286,-441,0,скакалка
1773868202103,286,-443,0,скакалка
1773868202103,286,-446,0,скакалка
1773868202111,286,-446,0,скакалка
1773868202111,286,-441,0,скакалка
1773868202111,286,-436,0,скакалка
1773868202113,286,-431,0,скакалка
1773868202113,286,-421,0,скакалка
1773868202114,286,-414,0,скакалка
1773868202114,286,-416,0,скакалка
1773868202114,286,-414,0,скакалка
1773868202114,286,-406,0,скакалка
1773868202114,286,-406,0,скакалка
1773868202114,286,-406,0,скакалка
1773868202114,286,-404,0,скакалка
1773868202114,286,-409,0,скакалка
1773868202114,286,-416,0,скакалка
1773868202114,286,-401,0,скакалка
1773868202114,286,-391,0,скакалка
1773868202114,286,-419,0,скакалка
1773868202114,286,-446,0,скакалка
1773868202114,286,-443,0,скакалка
1773868202114,286,-436,0,скакалка
1773868202114,286,-424,0,скакалка
1773868202114,286,-411,0,скакалка
1773868202114,286,-414,0,скакалка
1773868202114,286,-389,0,скакалка
1773868202114,286,-346,0,скакалка
1773868202114,286,-339,0,скакалка
1773868202114,286,-364,0,скакалка
1773868202114,286,-361,0,скакалка
1773868202114,286,-346,0,скакалка
1773868202114,286,-364,0,скакалка
1773868202114,286,-351,0,скакалка
1773868202114,286,-304,0,скакалка
1773868202114,286,-321,0,скакалка
1773868202114,286,-409,0,скакалка
1773868202114,286,-349,0,скакалка
1773868202114,286,-24,0,скакалка
1773868202114,286,276,0,скакалка
1773868202114,286,339,0,скакалка
1773868202130,286,271,0,скакалка
1773868202130,286,44,0,скакалка
1773868202130,286,-274,0,скакалка
1773868202130,286,-396,0,скакалка
1773868202130,286,-369,0,скакалка
1773868202130,286,-379,0,скакалка
1773868202130,286,-381,0,скакалка
1773868202130,286,-334,0,скакалка
1773868202130,286,-296,0,скакалка
1773868202130,286,-284,0,скакалка
1773868202130,286,-246,0,скакалка
1773868202130,286,-212,0,скакалка
1773868202130,286,-234,0,скакалка
1773868202130,286,-264,0,скакалка
1773868202130,286,-271,0,скакалка
1773868202138,286,-279,0,скакалка
1773868202138,286,-299,0,скакалка
1773868202180,277,-299,0,скакалка
1773868202260,295,-299,0,скакалка
1773868202346,298,-299,0,скакалка
1773868202456,262,-299,0,скакалка
1773868202536,322,-299,0,скакалка
1773868202650,249,-299,0,скакалка
1773868202679,249,-306,0,скакалка
1773868202687,249,-301,0,скакалка
1773868202689,249,-406,0,скакалка
1773868202689,249,-513,0,скакалка
1773868202689,249,-394,0,скакалка
1773868202689,249,-324,0,скакалка
1773868202689,249,-546,0,скакалка
1773868202689,249,-626,0,скакалка
1773868202689,249,-443,0,скакалка
1773868202689,249,-421,0,скакалка
1773868202689,249,-521,0,скакалка
1773868202689,249,-501,0,скакалка
1773868202689,249,-471,0,скакалка
1773868202689,249,-516,0,скакалка
1773868202689,249,-548,0,скакалка
1773868202689,249,-546,0,скакалка
1773868202689,249,-581,0,скакалка
1773868202696,249,-621,0,скакалка
1773868202696,249,-618,0,скакалка
1773868202697,249,-603,0,скакалка
1773868202697,249,-586,0,скакалка
1773868202697,249,-596,0,скакалка
1773868202697,249,-646,0,скакалка
1773868202697,249,-670,0,скакалка
1773868202697,249,-685,0,скакалка
1773868202697,249,-753,0,скакалка
1773868202697,249,-705,0,скакалка
1773868202697,249,-461,0,скакалка
1773868202697,249,-379,0,скакалка
1773868202697,249,-601,0,скакалка
1773868202697,249,-708,0,скакалка
1773868202697,249,-618,0,скакалка
1773868202697,249,-463,0,скакалка
1773868202697,249,-42,0,скакалка
1773868202697,249,364,0,скакалка
1773868202697,249,89,0,скакалка
1773868202697,249,-468,0,скакалка
1773868202697,249,-34,0,скакалка
1773868202697,249,1222,0,скакалка
1773868202697,249,1958,0,скакалка
1773868202697,249,2426,0,скакалка
1773868202697,249,3392,0,скакалка
1773868202697,249,4165,0,скакалка
1773868202697,249,4427,0,скакалка
1773868202697,249,4774,0,скакалка
1773868202697,249,5230,0,скакалка
1773868202697,249,5479,0,скакалка
1773868202697,249,5484,0,скакалка
1773868202697,249,5532,0,скакалка
1773868202697,249,5861,0,скакалка
1773868202713,249,6003,0,скакалка
1773868202713,249,5589,0,скакалка
1773868202713,249,5088,0,скакалка
1773868202713,249,4704,0,скакалка
1773868202713,249,4197,0,скакалка
1773868202713,249,3629,0,скакалка
1773868202713,249,3000,0,скакалка
1773868202713,249,2147,0,скакалка
1773868202713,249,1097,0,скакалка
1773868202713,249,14,0,скакалка
1773868202713,249,-865,0,скакалка
1773868202713,249,-1449,0,скакалка
1773868202713,249,-1788,0,скакалка
1773868202713,249,-1940,0,скакалка
1773868202713,249,-2072,0,скакалка
1773868202713,249,-2095,0,скакалка
1773868202713,249,-1863,0,скакалка
1773868202721,249,-1616,0,скакалка
1773868202721,249,-1219,0,скакалка
1773868202721,249,-591,0,скакалка
1773868202721,249,-154,0,скакалка
1773868202721,249,254,0,скакалка
1773868202721,249,895,0,скакалка
1773868202749,258,895,0,скакалка
1773868202835,370,895,0,скакалка
1773868202951,275,895,0,скакалка
1773868203060,272,895,0,скакалка
1773868203153,323,895,0,скакалка
1773868203277,325,895,0,скакалка
1773868203353,325,1451,0,скакалка
1773868203353,325,1785,0,скакалка
1773868203364,325,2020,0,скакалка
1773868203364,325,2217,0,скакалка
1773868203365,325,2359,0,скакалка
1773868203365,325,2424,0,скакалка
1773868203366,325,2556,0,скакалка
1773868203366,325,2821,0,скакалка
1773868203366,325,3217,0,скакалка
1773868203366,325,3753,0,скакалка
1773868203366,325,4285,0,скакалка
1773868203366,325,4781,0,скакалка
1773868203366,325,5223,0,скакалка
1773868203366,325,5385,0,скакалка
1773868203366,325,5350,0,скакалка
1773868203366,325,5068,0,скакалка
1773868203366,325,4207,0,скакалка
1773868203366,325,3095,0,скакалка
1773868203366,325,2115,0,скакалка
1773868203366,325,897,0,скакалка
1773868203366,325,-873,0,скакалка
1773868203366,325,-2668,0,скакалка
1773868203366,325,-3793,0,скакалка
1773868203366,325,-4357,0,скакалка
1773868203366,325,-4597,0,скакалка
1773868203366,325,-4532,0,скакалка
1773868203366,325,-4477,0,скакалка
1773868203366,325,-4562,0,скакалка
1773868203366,325,-4549,0,скакалка
1773868203366,325,-4474,0,скакалка
1773868203366,325,-4472,0,скакалка
1773868203366,325,-4399,0,скакалка
1773868203366,325,-4252,0,скакалка
1773868203366,325,-4148,0,скакалка
1773868203366,325,-3998,0,скакалка
1773868203366,325,-3891,0,скакалка
1773868203380,325,-4078,0,скакалка
1773868203380,325,-4140,0,скакалка
1773868203380,325,-3674,0,скакалка
1773868203380,325,-3454,0,скакалка
1773868203380,325,-3716,0,скакалка
1773868203380,325,-3751,0,скакалка
1773868203380,325,-3624,0,скакалка
1773868203380,325,-3596,0,скакалка
1773868203380,325,-3509,0,скакалка
1773868203380,325,-3437,0,скакалка
1773868203380,325,-3419,0,скакалка
1773868203380,325,-3284,0,скакалка
1773868203380,325,-3165,0,скакалка
1773868203380,325,-3160,0,скакалка
1773868203388,325,-3058,0,скакалка
1773868203388,325,-2920,0,скакалка
1773868203388,325,-2923,0,скакалка
1773868203388,325,-2848,0,скакалка
1773868203388,325,-2606,0,скакалка
1773868203388,325,-2511,0,скакалка
1773868203388,325,-2569,0,скакалка
1773868203388,325,-2531,0,скакалка
1773868203388,325,-2501,0,скакалка
1773868203388,325,-2519,0,скакалка
1773868203388,325,-2504,0,скакалка
1773868203388,325,-2484,0,скакалка
1773868203388,325,-2456,0,скакалка
1773868203388,325,-2491,0,скакалка
1773868203388,325,-2584,0,скакалка
1773868203388,325,-2449,0,скакалка
1773868203388,325,-2087,0,скакалка
1773868203396,325,-1718,0,скакалка
1773868203396,325,-1119,0,скакалка
1773868203396,325,-324,0,скакалка
1773868203396,325,329,0,скакалка
1773868203396,325,997,0,скакалка
1773868203396,325,1763,0,скакалка
1773868203396,327,1763,0,скакалка
1773868203455,417,1763,0,скакалка
1773868203560,273,1763,0,скакалка
1773868203653,125,1763,0,скакалка
1773868203750,345,1763,0,скакалка
1773868203812,345,2319,0,скакалка
1773868203812,345,2693,0,скакалка
1773868203814,345,3192,0,скакалка
1773868203815,345,3801,0,скакалка
1773868203815,345,4379,0,скакалка
1773868203815,345,4896,0,скакалка
1773868203815,345,5215,0,скакалка
1773868203815,345,5340,0,скакалка
1773868203815,345,5390,0,скакалка
1773868203815,345,5350,0,скакалка
1773868203815,345,5267,0,скакалка
1773868203815,345,5128,0,скакалка
1773868203815,345,4809,0,скакалка
1773868203815,345,4382,0,скакалка
1773868203815,345,3846,0,скакалка
1773868203815,345,3142,0,скакалка
1773868203815,345,2486,0,скакалка
1773868203815,345,1860,0,скакалка
1773868203815,345,1027,0,скакалка
1773868203815,345,202,0,скакалка
1773868203815,345,-436,0,скакалка
1773868203815,345,-1052,0,скакалка
1773868203815,345,-1638,0,скакалка
1773868203815,345,-2002,0,скакалка
1773868203815,345,-2189,0,скакалка
1773868203815,345,-2329,0,скакалка
1773868203815,345,-2329,0,скакалка
1773868203815,345,-2322,0,скакалка
1773868203815,345,-2362,0,скакалка
1773868203815,345,-2167,0,скакалка
1773868203815,345,-1818,0,скакалка
1773868203815,345,-1643,0,скакалка
1773868203815,345,-1501,0,скакалка
1773868203815,345,-1102,0,скакалка
1773868203829,345,-765,0,скакалка
1773868203829,345,-775,0,скакалка
1773868203829,345,-720,0,скакалка
1773868203829,345,-508,0,скакалка
1773868203829,345,-436,0,скакалка
1773868203829,345,-197,0,скакалка
1773868203829,345,251,0,скакалка
1773868203829,345,374,0,скакалка
1773868203829,345,266,0,скакалка
1773868203829,345,346,0,скакалка
1773868203829,345,516,0,скакалка
1773868203829,345,561,0,скакалка
1773868203829,345,598,0,скакалка
1773868203829,345,740,0,скакалка
1773868203829,345,828,0,скакалка
1773868203829,345,890,0,скакалка
1773868203829,345,992,0,скакалка
1773868203837,345,947,0,скакалка
1773868203837,345,730,0,скакалка
1773868203837,345,349,0,скакалка
1773868203837,345,-331,0,скакалка
1773868203837,345,-1214,0,скакалка
1773868203837,345,-2145,0,скакалка
1773868203837,345,-3040,0,скакалка
1773868203837,345,-3611,0,скакалка
1773868203837,345,-3788,0,скакалка
1773868203837,345,-3938,0,скакалка
1773868203837,345,-4058,0,скакалка
1773868203837,345,-3973,0,скакалка
1773868203837,345,-3938,0,скакалка
1773868203837,345,-3988,0,скакалка
1773868203837,345,-3898,0,скакалка
1773868203837,345,-3753,0,скакалка
1773868203837,345,-3641,0,скакалка
1773868203837,345,-3529,0,скакалка
1773868203837,345,-3487,0,скакалка
1773868203845,345,-3477,0,скакалка
1773868203846,345,-3374,0,скакалка
1773868203846,345,-3294,0,скакалка
1773868203856,222,-3294,0,скакалка
1773868203952,330,-3294,0,скакалка
1773868204043,442,-3294,0,скакалка
1773868204158,292,-3294,0,скакалка
1773868204244,250,-3294,0,скакалка
1773868204329,179,-3294,0,скакалка
1773868204345,179,-3339,0,скакалка
1773868204345,179,-3344,0,скакалка
1773868204353,179,-3220,0,скакалка
1773868204353,179,-3220,0,скакалка
1773868204353,179,-3284,0,скакалка
1773868204353,179,-2955,0,скакалка
1773868204353,179,-2648,0,скакалка
1773868204353,179,-2895,0,скакалка
1773868204353,179,-3035,0,скакалка
1773868204353,179,-2788,0,скакалка
1773868204353,179,-2733,0,скакалка
1773868204353,179,-2828,0,скакалка
1773868204353,179,-2481,0,скакалка
1773868204353,179,-2217,0,скакалка
1773868204353,179,-2731,0,скакалка
1773868204353,179,-2846,0,скакалка
1773868204353,179,-2237,0,скакалка
1773868204353,179,-2087,0,скакалка
1773868204353,179,-2424,0,скакалка
1773868204353,179,-2848,0,скакалка
1773868204353,179,-2945,0,скакалка
1773868204361,179,-1835,0,скакалка
1773868204361,179,399,0,скакалка
1773868204361,179,2549,0,скакалка
1773868204361,179,4088,0,скакалка
1773868204361,179,5380,0,скакалка
1773868204361,179,6367,0,скакалка
1773868204361,179,6759,0,скакалка
1773868204361,179,6924,0,скакалка
1773868204361,179,7310,0,скакалка
1773868204361,179,7769,0,скакалка
1773868204361,179,8263,0,скакалка
1773868204361,179,9071,0,скакалка
1773868204361,179,9767,0,скакалка
1773868204361,179,9857,0,скакалка
1773868204361,179,9752,0,скакалка
1773868204361,179,9685,0,скакалка
1773868204361,179,9425,0,скакалка
1773868204361,179,9089,0,скакалка
1773868204361,179,8745,0,скакалка
1773868204369,179,8193,0,скакалка
1773868204369,179,7313,0,скакалка
1773868204369,179,6038,0,скакалка
1773868204369,179,4499,0,скакалка
1773868204369,179,3005,0,скакалка
1773868204369,179,1701,0,скакалка
1773868204369,179,586,0,скакалка
1773868204369,179,-259,0,скакалка
1773868204369,179,-730,0,скакалка
1773868204369,179,-1055,0,скакалка
1773868204369,179,-1384,0,скакалка
1773868204369,179,-1504,0,скакалка
1773868204369,179,-1401,0,скакалка
1773868204369,179,-1232,0,скакалка
1773868204369,179,-900,0,скакалка
1773868204369,179,-296,0,скакалка
1773868204369,179,421,0,скакалка
1773868204379,179,1132,0,скакалка
1773868204379,179,1780,0,скакалка
1773868204379,179,2332,0,скакалка
1773868204379,179,2821,0,скакалка
1773868204379,179,3150,0,скакалка
1773868204379,179,3374,0,скакалка
1773868204379,179,3726,0,скакалка
1773868204379,179,4175,0,скакалка
1773868204379,179,4547,0,скакалка
1773868204379,179,4799,0,скакалка
1773868204379,179,5008,0,скакалка
1773868204379,179,5233,0,скакалка
1773868204379,179,5440,0,скакалка
1773868204379,179,5599,0,скакалка
1773868204379,179,5669,0,скакалка
1773868204379,179,5672,0,скакалка
1773868204453,281,5672,0,скакалка
1773868204543,272,5672,0,скакалка
1773868204651,319,5672,0,скакалка
1773868204752,318,5672,0,скакалка
1773868204851,317,5672,0,скакалка
1773868204928,317,5696,0,скакалка
1773868204928,317,5689,0,скакалка
1773868204939,317,5522,0,скакалка
1773868204940,317,5125,0,скакалка
1773868204940,317,4345,0,скакалка
1773868204940,317,3197,0,скакалка
1773868204940,317,2057,0,скакалка
1773868204940,317,995,0,скакалка
1773868204940,317,-236,0,скакалка
1773868204940,317,-1728,0,скакалка
1773868204940,317,-3452,0,скакалка
1773868204940,317,-5026,0,скакалка
1773868204940,317,-5881,0,скакалка
1773868204940,317,-6180,0,скакалка
1773868204940,317,-6442,0,скакалка
1773868204946,317,-6387,0,скакалка
1773868204946,317,-6016,0,скакалка
1773868204946,317,-6113,0,скакалка
1773868204946,317,-6367,0,скакалка
1773868204946,317,-6143,0,скакалка
1773868204946,317,-6046,0,скакалка
1773868204946,317,-6265,0,скакалка
1773868204946,317,-6220,0,скакалка
1773868204946,317,-5961,0,скакалка
1773868204946,317,-5771,0,скакалка
1773868204946,317,-5557,0,скакалка
1773868204946,317,-5385,0,скакалка
1773868204946,317,-5322,0,скакалка
1773868204946,317,-5223,0,скакалка
1773868204946,317,-5078,0,скакалка
1773868204946,317,-4971,0,скакалка
1773868204946,317,-4851,0,скакалка
1773868204946,317,-4714,0,скакалка
1773868204954,317,-4626,0,скакалка
1773868204954,317,-4567,0,скакалка
1773868204954,317,-4514,0,скакалка
1773868204954,317,-4437,0,скакалка
1773868204954,317,-4272,0,скакалка
1773868204954,317,-4175,0,скакалка
1773868204954,317,-4172,0,скакалка
1773868204954,317,-4160,0,скакалка
1773868204954,317,-4167,0,скакалка
1773868204954,317,-4045,0,скакалка
1773868204954,317,-3943,0,скакалка
1773868204954,317,-4033,0,скакалка
1773868204954,317,-3923,0,скакалка
1773868204954,317,-3701,0,скакалка
1773868204954,317,-3773,0,скакалка
1773868204954,317,-3936,0,скакалка
1773868204954,317,-3858,0,скакалка
1773868204962,317,-3364,0,скакалка
1773868204962,317,-2182,0,скакалка
1773868204962,317,-603,0,скакалка
1773868204962,317,710,0,скакалка
1773868204962,317,1813,0,скакалка
1773868204962,317,2938,0,скакалка
1773868204962,317,4028,0,скакалка
1773868204962,317,4911,0,скакалка
1773868204962,317,5405,0,скакалка
1773868204962,317,5684,0,скакалка
1773868204962,317,5971,0,скакалка
1773868204962,317,6190,0,скакалка
1773868204962,317,6308,0,скакалка
1773868204962,317,6370,0,скакалка
1773868204962,317,6392,0,скакалка
1773868204962,317,6382,0,скакалка
1773868204962,317,6305,0,скакалка
1773868204962,317,6133,0,скакалка
1773868204970,317,5819,0,скакалка
1773868204970,317,5292,0,скакалка
1773868204970,317,4544,0,скакалка
1773868204970,317,3686,0,скакалка
1773868204970,317,2758,0,скакалка
1773868204970,260,2758,0,скакалка
1773868205053,183,2758,0,скакалка
1773868205144,333,2758,0,скакалка
1773868205244,352,2758,0,скакалка
1773868205337,247,2758,0,скакалка
1773868205435,307,2758,0,скакалка
1773868205522,307,1638,0,скакалка
1773868205528,307,563,0,скакалка
1773868205531,307,-169,0,скакалка
1773868205531,307,-728,0,скакалка
1773868205531,307,-1257,0,скакалка
1773868205531,307,-1583,0,скакалка
1773868205531,307,-1731,0,скакалка
1773868205531,307,-1965,0,скакалка
1773868205531,307,-2125,0,скакалка
1773868205531,307,-1938,0,скакалка
1773868205531,307,-1593,0,скакалка
1773868205531,307,-1436,0,скакалка
1773868205531,307,-1494,0,скакалка
1773868205531,307,-1376,0,скакалка
1773868205531,307,-1204,0,скакалка
1773868205531,307,-1214,0,скакалка
1773868205531,307,-922,0,скакалка
1773868205531,307,-409,0,скакалка
1773868205531,307,-199,0,скакалка
1773868205531,307,-64,0,скакалка
1773868205531,307,174,0,скакалка
1773868205531,307,269,0,скакалка
1773868205531,307,321,0,скакалка
1773868205531,307,456,0,скакалка
1773868205531,307,523,0,скакалка
1773868205531,307,566,0,скакалка
1773868205531,307,588,0,скакалка
1773868205531,307,538,0,скакалка
1773868205531,307,511,0,скакалка
1773868205531,307,381,0,скакалка
1773868205531,307,-32,0,скакалка
1773868205531,307,-638,0,скакалка
1773868205531,307,-1304,0,скакалка
1773868205545,307,-2117,0,скакалка
1773868205546,307,-3157,0,скакалка
1773868205546,307,-4242,0,скакалка
1773868205546,307,-5193,0,скакалка
1773868205546,307,-5819,0,скакалка
1773868205546,307,-6028,0,скакалка
1773868205546,307,-6148,0,скакалка
1773868205546,307,-6303,0,скакалка
1773868205546,307,-6273,0,скакалка
1773868205546,307,-6148,0,скакалка
1773868205546,307,-6103,0,скакалка
1773868205546,307,-6051,0,скакалка
1773868205546,307,-5943,0,скакалка
1773868205546,307,-5801,0,скакалка
1773868205546,307,-5619,0,скакалка
1773868205546,307,-5470,0,скакалка
1773868205546,307,-5342,0,скакалка
1773868205546,307,-5243,0,скакалка
1773868205554,307,-5168,0,скакалка
1773868205554,307,-5003,0,скакалка
1773868205554,307,-4818,0,скакалка
1773868205554,307,-4751,0,скакалка
1773868205554,307,-4709,0,скакалка
1773868205554,307,-4567,0,скакалка
1773868205554,307,-4454,0,скакалка
1773868205554,307,-4487,0,скакалка
1773868205554,307,-4474,0,скакалка
1773868205554,307,-4272,0,скакалка
1773868205554,307,-4065,0,скакалка
1773868205554,307,-4078,0,скакалка
1773868205554,307,-4115,0,скакалка
1773868205554,307,-3921,0,скакалка
1773868205554,307,-3771,0,скакалка
1773868205554,307,-3706,0,скакалка
1773868205554,307,-3584,0,скакалка
1773868205554,307,-3621,0,скакалка
1773868205562,307,-3644,0,скакалка
1773868205562,307,-3437,0,скакалка
1773868205562,307,-3389,0,скакалка
1773868205562,307,-3484,0,скакалка
1773868205562,221,-3484,0,скакалка
1773868205661,141,-3484,0,скакалка
1773868205752,276,-3484,0,скакалка
1773868205845,267,-3484,0,скакалка
1773868205951,261,-3484,0,скакалка
1773868206051,299,-3484,0,скакалка
1773868206057,299,-3319,0,скакалка
1773868206062,299,-3250,0,скакалка
1773868206062,299,-3389,0,скакалка
1773868206065,299,-3082,0,скакалка
1773868206065,299,-2334,0,скакалка
1773868206065,299,-1940,0,скакалка
1773868206065,299,-2150,0,скакалка
1773868206065,299,-2339,0,скакалка
1773868206065,299,-2382,0,скакалка
1773868206065,299,-2554,0,скакалка
1773868206065,299,-2683,0,скакалка
1773868206065,299,-2666,0,скакалка
1773868206065,299,-2591,0,скакалка
1773868206065,299,-2524,0,скакалка
1773868206065,299,-2521,0,скакалка
1773868206065,299,-2486,0,скакалка
1773868206065,299,-2369,0,скакалка
1773868206065,299,-2289,0,скакалка
1773868206065,299,-2259,0,скакалка
1773868206065,299,-2212,0,скакалка
1773868206065,299,-2145,0,скакалка
1773868206065,299,-2077,0,скакалка
1773868206065,299,-2035,0,скакалка
1773868206065,299,-1995,0,скакалка
1773868206065,299,-1925,0,скакалка
1773868206065,299,-1868,0,скакалка
1773868206065,299,-1833,0,скакалка
1773868206065,299,-1775,0,скакалка
1773868206065,299,-1728,0,скакалка
1773868206065,299,-1718,0,скакалка
1773868206065,299,-1711,0,скакалка
1773868206065,299,-1746,0,скакалка
1773868206065,299,-1818,0,скакалка
1773868206065,299,-1830,0,скакалка
1773868206079,299,-1773,0,скакалка
1773868206079,299,-1746,0,скакалка
1773868206079,299,-1736,0,скакалка
1773868206079,299,-1658,0,скакалка
1773868206079,299,-1571,0,скакалка
1773868206079,299,-1511,0,скакалка
1773868206079,299,-1419,0,скакалка
1773868206079,299,-1319,0,скакалка
1773868206079,299,-1214,0,скакалка
1773868206079,299,-975,0,скакалка
1773868206079,299,-533,0,скакалка
1773868206079,299,-77,0,скакалка
1773868206079,299,77,0,скакалка
1773868206079,299,59,0,скакалка
1773868206079,299,259,0,скакалка
1773868206079,299,478,0,скакалка
1773868206079,299,606,0,скакалка
1773868206087,299,1020,0,скакалка
1773868206087,299,1553,0,скакалка
1773868206087,299,1800,0,скакалка
1773868206087,299,2000,0,скакалка
1773868206087,299,2309,0,скакалка
1773868206087,299,2426,0,скакалка
1773868206087,299,2394,0,скакалка
1773868206087,299,2409,0,скакалка
1773868206087,299,2364,0,скакалка
1773868206087,299,2209,0,скакалка
1773868206087,299,1943,0,скакалка
1773868206087,299,1451,0,скакалка
1773868206087,299,688,0,скакалка
1773868206087,299,-339,0,скакалка
1773868206087,299,-1519,0,скакалка
1773868206087,299,-2379,0,скакалка
1773868206087,299,-2716,0,скакалка
1773868206087,299,-2880,0,скакалка
1773868206087,299,-2915,0,скакалка
1773868206095,299,-2653,0,скакалка
1773868206096,299,-2474,0,скакалка
1773868206096,299,-2569,0,скакалка
1773868206157,294,-2569,0,скакалка
1773868206244,297,-2569,0,скакалка
1773868206335,260,-2569,0,скакалка
1773868206443,258,-2569,0,скакалка
1773868206543,301,-2569,0,скакалка
1773868206643,301,-2426,0,скакалка
1773868206643,301,-2247,0,скакалка
1773868206649,301,-2486,0,скакалка
1773868206649,301,-2703,0,скакалка
1773868206650,301,-2661,0,скакалка
1773868206650,301,-2614,0,скакалка
1773868206650,301,-2624,0,скакалка
1773868206650,301,-2606,0,скакалка
1773868206650,301,-2544,0,скакалка
1773868206650,301,-2474,0,скакалка
1773868206650,301,-2362,0,скакалка
1773868206650,301,-2229,0,скакалка
1773868206650,301,-2172,0,скакалка
1773868206650,301,-2120,0,скакалка
1773868206650,301,-2032,0,скакалка
1773868206650,301,-1948,0,скакалка
1773868206650,301,-1853,0,скакалка
1773868206650,301,-1810,0,скакалка
1773868206650,301,-1903,0,скакалка
1773868206650,301,-1972,0,скакалка
1773868206650,301,-1878,0,скакалка
1773868206650,301,-1845,0,скакалка
1773868206650,301,-1885,0,скакалка
1773868206650,301,-1726,0,скакалка
1773868206650,301,-1593,0,скакалка
1773868206650,301,-1666,0,скакалка
1773868206650,301,-1666,0,скакалка
1773868206650,301,-1611,0,скакалка
1773868206650,301,-1631,0,скакалка
1773868206650,301,-1521,0,скакалка
1773868206650,301,-1209,0,скакалка
1773868206650,301,-935,0,скакалка
1773868206663,301,-763,0,скакалка
1773868206663,301,-538,0,скакалка
1773868206663,301,-264,0,скакалка
1773868206663,301,-94,0,скакалка
1773868206663,301,-12,0,скакалка
1773868206663,301,72,0,скакалка
1773868206663,301,152,0,скакалка
1773868206663,301,209,0,скакалка
1773868206663,301,261,0,скакалка
1773868206663,301,296,0,скакалка
1773868206663,301,334,0,скакалка
1773868206663,301,384,0,скакалка
1773868206663,301,424,0,скакалка
1773868206663,301,448,0,скакалка
1773868206663,301,476,0,скакалка
1773868206663,301,508,0,скакалка
1773868206663,301,536,0,скакалка
1773868206671,301,571,0,скакалка
1773868206671,301,606,0,скакалка
1773868206671,301,616,0,скакалка
1773868206671,301,613,0,скакалка
1773868206671,301,633,0,скакалка
1773868206671,301,648,0,скакалка
1773868206671,301,616,0,скакалка
1773868206671,301,568,0,скакалка
1773868206671,301,536,0,скакалка
1773868206671,301,511,0,скакалка
1773868206671,301,483,0,скакалка
1773868206671,301,429,0,скакалка
1773868206671,301,414,0,скакалка
1773868206671,301,438,0,скакалка
1773868206671,301,361,0,скакалка
1773868206671,301,246,0,скакалка
1773868206671,301,359,0,скакалка
1773868206671,301,718,0,скакалка
1773868206679,301,1082,0,скакалка
1773868206679,301,1097,0,скакалка
1773868206679,301,905,0,скакалка
1773868206679,301,875,0,скакалка
1773868206679,301,788,0,скакалка
1773868206679,301,616,0,скакалка
1773868206679,307,616,0,скакалка
1773868206754,281,616,0,скакалка
1773868206875,303,616,0,скакалка
1773868206961,247,616,0,скакалка
1773868207052,304,616,0,скакалка
1773868207160,291,616,0,скакалка
1773868207259,305,616,0,скакалка
1773868207263,305,593,0,скакалка
1773868207263,305,675,0,скакалка
1773868207279,305,815,0,скакалка
1773868207279,305,1025,0,скакалка
1773868207280,305,1546,0,скакалка
1773868207280,305,2272,0,скакалка
1773868207280,305,2212,0,скакалка
1773868207280,305,1331,0,скакалка
1773868207280,305,873,0,скакалка
1773868207280,305,1027,0,скакалка
1773868207280,305,1114,0,скакалка
1773868207287,305,1070,0,скакалка
1773868207287,305,1112,0,скакалка
1773868207287,305,1149,0,скакалка
1773868207287,305,1007,0,скакалка
1773868207287,305,391,0,скакалка
1773868207287,305,-845,0,скакалка
1773868207287,305,-1975,0,скакалка
1773868207287,305,-2372,0,скакалка
1773868207287,305,-2521,0,скакалка
1773868207287,305,-2718,0,скакалка
1773868207287,305,-2701,0,скакалка
1773868207287,305,-2619,0,скакалка
1773868207287,305,-2681,0,скакалка
1773868207287,305,-2678,0,скакалка
1773868207296,305,-2526,0,скакалка
1773868207296,305,-2436,0,скакалка
1773868207296,305,-2421,0,скакалка
1773868207296,305,-2392,0,скакалка
1773868207296,305,-2394,0,скакалка
1773868207296,305,-2399,0,скакалка
1773868207296,305,-2364,0,скакалка
1773868207296,305,-2334,0,скакалка
1773868207296,305,-2289,0,скакалка
1773868207296,305,-2194,0,скакалка
1773868207296,305,-2110,0,скакалка
1773868207296,305,-2090,0,скакалка
1773868207296,305,-2047,0,скакалка
1773868207296,305,-1943,0,скакалка
1773868207296,305,-1870,0,скакалка
1773868207304,305,-1845,0,скакалка
1773868207304,305,-1773,0,скакалка
1773868207304,305,-1666,0,скакалка
1773868207304,305,-1631,0,скакалка
1773868207304,305,-1661,0,скакалка
1773868207304,305,-1688,0,скакалка
1773868207304,305,-1708,0,скакалка
1773868207304,305,-1688,0,скакалка
1773868207304,305,-1646,0,скакалка
1773868207304,305,-1631,0,скакалка
1773868207304,305,-1571,0,скакалка
1773868207304,305,-1536,0,скакалка
1773868207304,305,-1561,0,скакалка
1773868207304,305,-1489,0,скакалка
1773868207304,305,-1389,0,скакалка
1773868207304,305,-1336,0,скакалка
1773868207304,305,-1319,0,скакалка
1773868207312,305,-1299,0,скакалка
1773868207312,305,-1282,0,скакалка
1773868207312,305,-1336,0,скакалка
1773868207312,305,-1302,0,скакалка
1773868207312,305,-980,0,скакалка
1773868207312,305,-409,0,скакалка
1773868207312,305,34,0,скакалка
1773868207312,305,17,0,скакалка
1773868207312,305,-167,0,скакалка
1773868207312,305,-324,0,скакалка
1773868207312,305,-551,0,скакалка
1773868207312,305,-648,0,скакалка
1773868207312,305,-563,0,скакалка
1773868207312,305,-493,0,скакалка
1773868207312,305,-461,0,скакалка
1773868207312,305,-386,0,скакалка
1773868207345,304,-386,0,скакалка
1773868207450,305,-386,0,скакалка
1773868207550,294,-386,0,скакалка
1773868207643,302,-386,0,скакалка
1773868207767,302,-386,0,скакалка
1773868207770,302,-274,0,скакалка
1773868207770,302,-212,0,скакалка
1773868207770,302,-194,0,скакалка
1773868207770,302,-149,0,скакалка
1773868207770,302,-134,0,скакалка
1773868207770,302,-114,0,скакалка
1773868207770,302,-22,0,скакалка
1773868207770,302,27,0,скакалка
1773868207770,302,9,0,скакалка
1773868207770,302,17,0,скакалка
1773868207770,302,29,0,скакалка
1773868207770,302,17,0,скакалка
1773868207770,302,24,0,скакалка
1773868207770,302,62,0,скакалка
1773868207780,302,89,0,скакалка
1773868207780,302,102,0,скакалка
1773868207780,302,147,0,скакалка
1773868207780,302,194,0,скакалка
1773868207780,302,202,0,скакалка
1773868207782,302,221,0,скакалка
1773868207782,302,246,0,скакалка
1773868207782,302,241,0,скакалка
1773868207782,302,249,0,скакалка
1773868207782,302,289,0,скакалка
1773868207782,302,346,0,скакалка
1773868207782,302,406,0,скакалка
1773868207782,302,419,0,скакалка
1773868207782,302,431,0,скакалка
1773868207782,302,506,0,скакалка
1773868207782,302,561,0,скакалка
1773868207782,302,533,0,скакалка
1773868207782,302,501,0,скакалка
1773868207782,302,536,0,скакалка
1773868207782,302,566,0,скакалка
1773868207782,302,518,0,скакалка
1773868207782,302,463,0,скакалка
1773868207782,302,419,0,скакалка
1773868207782,302,344,0,скакалка
1773868207782,302,279,0,скакалка
1773868207782,302,202,0,скакалка
1773868207782,302,34,0,скакалка
1773868207782,302,-374,0,скакалка
1773868207782,302,-1112,0,скакалка
1773868207782,302,-1800,0,скакалка
1773868207782,302,-2085,0,скакалка
1773868207782,302,-2192,0,скакалка
1773868207796,302,-2307,0,скакалка
1773868207796,302,-2354,0,скакалка
1773868207796,302,-2347,0,скакалка
1773868207796,302,-2342,0,скакалка
1773868207796,302,-2324,0,скакалка
1773868207796,302,-2284,0,скакалка
1773868207796,302,-2249,0,скакалка
1773868207796,302,-2267,0,скакалка
1773868207796,302,-2214,0,скакалка
1773868207796,302,-1925,0,скакалка
1773868207796,302,-1529,0,скакалка
1773868207796,302,-1474,0,скакалка
1773868207796,302,-1706,0,скакалка
1773868207796,302,-1683,0,скакалка
1773868207796,302,-1621,0,скакалка
1773868207796,302,-1830,0,скакалка
1773868207796,302,-1933,0,скакалка
1773868207796,302,-1865,0,скакалка
1773868207804,302,-1860,0,скакалка
1773868207804,302,-1840,0,скакалка
1773868207804,302,-1753,0,скакалка
1773868207804,302,-1738,0,скакалка
1773868207804,302,-1741,0,скакалка
1773868207804,302,-1686,0,скакалка
1773868207804,302,-1738,0,скакалка
1773868207804,302,-1813,0,скакалка
1773868207804,302,-1741,0,скакалка
1773868207845,301,-1741,0,скакалка
1773868207944,300,-1741,0,скакалка
1773868208060,300,-1741,0,скакалка
1773868208176,298,-1741,0,скакалка
1773868208252,292,-1741,0,скакалка
1773868208312,292,-1661,0,скакалка
1773868208312,292,-1726,0,скакалка
1773868208314,292,-1820,0,скакалка
1773868208314,292,-1741,0,скакалка
1773868208315,292,-1596,0,скакалка
1773868208315,292,-1596,0,скакалка
1773868208315,292,-1653,0,скакалка
1773868208315,292,-1538,0,скакалка
1773868208315,292,-1239,0,скакалка
1773868208315,292,-980,0,скакалка
1773868208315,292,-723,0,скакалка
1773868208315,292,-331,0,скакалка
1773868208315,292,39,0,скакалка
1773868208315,292,281,0,скакалка
1773868208315,292,493,0,скакалка
1773868208315,292,690,0,скакалка
1773868208315,292,803,0,скакалка
1773868208315,292,875,0,скакалка
1773868208315,292,970,0,скакалка
1773868208315,292,1057,0,скакалка
1773868208315,292,1114,0,скакалка
1773868208315,292,1152,0,скакалка
1773868208315,292,1169,0,скакалка
1773868208315,292,1177,0,скакалка
1773868208315,292,1177,0,скакалка
1773868208315,292,1172,0,скакалка
1773868208315,292,1174,0,скакалка
1773868208315,292,1172,0,скакалка
1773868208315,292,1137,0,скакалка
1773868208315,292,1097,0,скакалка
1773868208315,292,1104,0,скакалка
1773868208315,292,1112,0,скакалка
1773868208315,292,1060,0,скакалка
1773868208315,292,1007,0,скакалка
1773868208330,292,975,0,скакалка
1773868208330,292,912,0,скакалка
1773868208330,292,840,0,скакалка
1773868208330,292,768,0,скакалка
1773868208330,292,688,0,скакалка
1773868208330,292,651,0,скакалка
1773868208330,292,680,0,скакалка
1773868208330,292,678,0,скакалка
1773868208330,292,618,0,скакалка
1773868208330,292,593,0,скакалка
1773868208330,292,588,0,скакалка
1773868208330,292,546,0,скакалка
1773868208330,292,503,0,скакалка
1773868208330,292,498,0,скакалка
1773868208330,292,483,0,скакалка
1773868208330,292,424,0,скакалка
1773868208330,292,326,0,скакалка
1773868208338,292,306,0,скакалка
1773868208338,292,496,0,скакалка
1773868208338,292,750,0,скакалка
1773868208338,292,720,0,скакалка
1773868208338,292,481,0,скакалка
1773868208338,292,301,0,скакалка
1773868208338,292,-202,0,скакалка
1773868208338,292,-1149,0,скакалка
1773868208338,292,-2017,0,скакалка
1773868208338,292,-2696,0,скакалка
1773868208338,292,-3130,0,скакалка
1773868208338,292,-3247,0,скакалка
1773868208338,292,-3322,0,скакалка
1773868208338,292,-3389,0,скакалка
1773868208338,292,-3347,0,скакалка
1773868208338,292,-3322,0,скакалка
1773868208338,292,-3339,0,скакалка
1773868208346,292,-3327,0,скакалка
1773868208346,292,-3294,0,скакалка
1773868208346,292,-3262,0,скакалка
1773868208346,292,-3220,0,скакалка
1773868208346,292,-3142,0,скакалка
1773868208363,308,-3142,0,скакалка
1773868208452,303,-3142,0,скакалка
1773868208543,297,-3142,0,скакалка
1773868208642,289,-3142,0,скакалка
1773868208750,280,-3142,0,скакалка
1773868208835,285,-3142,0,скакалка
1773868208895,285,-3028,0,скакалка
1773868208898,285,-2988,0,скакалка
1773868208899,285,-3065,0,скакалка
1773868208899,285,-3023,0,скакалка
1773868208899,285,-2806,0,скакалка
1773868208899,285,-2673,0,скакалка
1773868208899,285,-2638,0,скакалка
1773868208899,285,-2551,0,скакалка
1773868208899,285,-2449,0,скакалка
1773868208899,285,-2389,0,скакалка
1773868208899,285,-2342,0,скакалка
1773868208899,285,-2284,0,скакалка
1773868208899,285,-2229,0,скакалка
1773868208899,285,-2177,0,скакалка
1773868208899,285,-2127,0,скакалка
1773868208899,285,-2100,0,скакалка
1773868208899,285,-2077,0,скакалка
1773868208899,285,-2027,0,скакалка
1773868208899,285,-1997,0,скакалка
1773868208899,285,-2002,0,скакалка
1773868208899,285,-1958,0,скакалка
1773868208899,285,-1853,0,скакалка
1773868208899,285,-1800,0,скакалка
1773868208899,285,-1785,0,скакалка
1773868208899,285,-1731,0,скакалка
1773868208899,285,-1683,0,скакалка
1773868208899,285,-1676,0,скакалка
1773868208899,285,-1666,0,скакалка
1773868208899,285,-1646,0,скакалка
1773868208899,285,-1646,0,скакалка
1773868208912,285,-1646,0,скакалка
1773868208912,285,-1641,0,скакалка
1773868208912,285,-1633,0,скакалка
1773868208912,285,-1608,0,скакалка
1773868208912,285,-1566,0,скакалка
1773868208912,285,-1509,0,скакалка
1773868208912,285,-1446,0,скакалка
1773868208912,285,-1419,0,скакалка
1773868208912,285,-1421,0,скакалка
1773868208912,285,-1431,0,скакалка
1773868208912,285,-1436,0,скакалка
1773868208912,285,-1441,0,скакалка
1773868208912,285,-1451,0,скакалка
1773868208912,285,-1429,0,скакалка
1773868208912,285,-1366,0,скакалка
1773868208912,285,-1381,0,скакалка
1773868208912,285,-1476,0,скакалка
1773868208912,285,-1394,0,скакалка
1773868208912,285,-977,0,скакалка
1773868208920,285,-588,0,скакалка
1773868208920,285,-628,0,скакалка
1773868208920,285,-788,0,скакалка
1773868208920,285,-810,0,скакалка
1773868208920,285,-1010,0,скакалка
1773868208920,285,-1289,0,скакалка
1773868208920,285,-1309,0,скакалка
1773868208920,285,-1237,0,скакалка
1773868208920,285,-1247,0,скакалка
1773868208920,285,-1254,0,скакалка
1773868208920,285,-1217,0,скакалка
1773868208920,285,-1189,0,скакалка
1773868208920,285,-1179,0,скакалка
1773868208920,285,-1167,0,скакалка
1773868208920,285,-1147,0,скакалка
1773868208920,285,-1132,0,скакалка
1773868208920,285,-1147,0,скакалка
1773868208920,285,-1144,0,скакалка
1773868208929,285,-1107,0,скакалка
1773868208929,285,-1127,0,скакалка
1773868208929,285,-1164,0,скакалка
1773868208929,285,-1094,0,скакалка
1773868208929,285,-1050,0,скакалка
1773868208929,285,-1087,0,скакалка
1773868208946,286,-1087,0,скакалка
1773868209067,286,-1087,0,скакалка
1773868209153,284,-1087,0,скакалка
1773868209251,290,-1087,0,скакалка
1773868209351,288,-1087,0,скакалка
1773868209460,289,-1087,0,скакалка
1773868209478,289,-1062,0,скакалка
1773868209478,289,-995,0,скакалка
1773868209478,289,-1042,0,скакалка
1773868209478,289,-1114,0,скакалка
1773868209478,289,-1027,0,скакалка
1773868209485,289,-940,0,скакалка
1773868209485,289,-995,0,скакалка
1773868209485,289,-1022,0,скакалка
1773868209485,289,-985,0,скакалка
1773868209485,289,-977,0,скакалка
1773868209485,289,-975,0,скакалка
1773868209485,289,-962,0,скакалка
1773868209485,289,-975,0,скакалка
1773868209485,289,-980,0,скакалка
1773868209485,289,-957,0,скакалка
1773868209485,289,-955,0,скакалка
1773868209485,289,-982,0,скакалка
1773868209485,289,-987,0,скакалка
1773868209485,289,-967,0,скакалка
1773868209485,289,-962,0,скакалка
1773868209485,289,-960,0,скакалка
1773868209485,289,-955,0,скакалка
1773868209485,289,-950,0,скакалка
1773868209485,289,-950,0,скакалка
1773868209496,289,-950,0,скакалка
1773868209496,289,-947,0,скакалка
1773868209496,289,-945,0,скакалка
1773868209496,289,-940,0,скакалка
1773868209496,289,-940,0,скакалка
1773868209496,289,-937,0,скакалка
1773868209496,289,-910,0,скакалка
1773868209496,289,-850,0,скакалка
1773868209496,289,-800,0,скакалка
1773868209496,289,-758,0,скакалка
1773868209496,289,-728,0,скакалка
1773868209496,289,-718,0,скакалка
1773868209504,289,-683,0,скакалка
1773868209504,289,-646,0,скакалка
1773868209504,289,-643,0,скакалка
1773868209504,289,-628,0,скакалка
1773868209504,289,-596,0,скакалка
1773868209504,289,-588,0,скакалка
1773868209504,289,-648,0,скакалка
1773868209504,289,-680,0,скакалка
1773868209504,289,-443,0,скакалка
1773868209504,289,69,0,скакалка
1773868209504,289,384,0,скакалка
1773868209504,289,162,0,скакалка
1773868209504,289,-124,0,скакалка
1773868209504,289,-239,0,скакалка
1773868209504,289,-498,0,скакалка
1773868209512,289,-693,0,скакалка
1773868209512,289,-643,0,скакалка
1773868209512,289,-618,0,скакалка
1773868209512,289,-656,0,скакалка
1773868209512,289,-636,0,скакалка
1773868209512,289,-588,0,скакалка
1773868209512,289,-528,0,скакалка
1773868209512,289,-468,0,скакалка
1773868209512,289,-416,0,скакалка
1773868209512,289,-344,0,скакалка
1773868209512,289,-276,0,скакалка
1773868209512,289,-207,0,скакалка
1773868209512,289,-117,0,скакалка
1773868209512,289,-77,0,скакалка
1773868209512,289,-34,0,скакалка
1773868209512,289,92,0,скакалка
1773868209512,289,187,0,скакалка
1773868209512,289,207,0,скакалка
1773868209512,289,234,0,скакалка
1773868209520,289,304,0,скакалка
1773868209520,289,381,0,скакалка
1773868209520,289,409,0,скакалка
1773868209553,291,409,0,скакалка
1773868209643,291,409,0,скакалка
1773868209750,292,409,0,скакалка
1773868209843,292,409,0,скакалка
1773868209943,290,409,0,скакалка
1773868209975,290,396,0,скакалка
1773868209975,290,406,0,скакалка
1773868209979,290,434,0,скакалка
1773868209979,290,431,0,скакалка
1773868209979,290,416,0,скакалка
1773868209979,290,406,0,скакалка
1773868209979,290,399,0,скакалка
1773868209979,290,396,0,скакалка
1773868209979,290,404,0,скакалка
1773868209979,290,406,0,скакалка
1773868209979,290,401,0,скакалка
1773868209979,290,384,0,скакалка
1773868209979,290,354,0,скакалка
1773868209979,290,341,0,скакалка
1773868209979,290,331,0,скакалка
1773868209979,290,296,0,скакалка
1773868209979,290,254,0,скакалка
1773868209979,290,219,0,скакалка
1773868209979,290,182,0,скакалка
1773868209979,290,142,0,скакалка
1773868209987,290,94,0,скакалка
1773868209987,290,22,0,скакалка
1773868209987,290,-9,0,скакалка
1773868209987,290,-24,0,скакалка
1773868209987,290,-77,0,скакалка
1773868209987,290,-72,0,скакалка
1773868209987,290,-32,0,скакалка
1773868209987,290,-62,0,скакалка
1773868209987,290,-29,0,скакалка
1773868209987,290,154,0,скакалка
1773868209987,290,389,0,скакалка
1773868209987,290,693,0,скакалка
1773868209995,290,1112,0,скакалка
1773868209995,290,1583,0,скакалка
1773868209997,290,2090,0,скакалка
1773868209997,290,2566,0,скакалка
1773868209997,290,2878,0,скакалка
1773868209997,290,3028,0,скакалка
1773868209997,290,3102,0,скакалка
1773868209997,290,3217,0,скакалка
1773868209997,290,3469,0,скакалка
1773868209997,290,3728,0,скакалка
1773868209997,290,3649,0,скакалка
1773868209997,290,3329,0,скакалка
1773868209997,290,3157,0,скакалка
1773868209997,290,2915,0,скакалка
1773868209997,290,2516,0,скакалка
1773868209997,290,2302,0,скакалка
1773868209997,290,2194,0,скакалка
1773868209997,290,1990,0,скакалка
1773868209997,290,1765,0,скакалка
1773868210005,290,1568,0,скакалка
1773868210005,290,1354,0,скакалка
1773868210005,290,1124,0,скакалка
1773868210005,290,853,0,скакалка
1773868210005,290,531,0,скакалка
1773868210005,290,212,0,скакалка
1773868210005,290,-92,0,скакалка
1773868210005,290,-399,0,скакалка
1773868210005,290,-715,0,скакалка
1773868210005,290,-1007,0,скакалка
1773868210005,290,-1244,0,скакалка
1773868210005,290,-1444,0,скакалка
1773868210005,290,-1641,0,скакалка
1773868210011,290,-1835,0,скакалка
1773868210011,290,-1982,0,скакалка
1773868210011,290,-2065,0,скакалка
1773868210011,290,-2120,0,скакалка
1773868210011,290,-2165,0,скакалка
1773868210011,290,-2192,0,скакалка
1773868210011,290,-2237,0,скакалка
1773868210011,290,-2277,0,скакалка
1773868210011,290,-2262,0,скакалка
1773868210045,291,-2262,0,скакалка
1773868210145,291,-2262,0,скакалка
1773868210258,291,-2262,0,скакалка
1773868210336,291,-2262,0,скакалка
1773868210428,295,-2262,0,скакалка
1773868210551,295,-2234,0,скакалка
1773868210551,295,-2229,0,скакалка
1773868210564,295,-2182,0,скакалка
1773868210564,295,-2110,0,скакалка
1773868210565,295,-2072,0,скакалка
1773868210565,295,-2047,0,скакалка
1773868210565,295,-1997,0,скакалка
1773868210565,295,-1943,0,скакалка
1773868210565,295,-1890,0,скакалка
1773868210565,295,-1828,0,скакалка
1773868210565,295,-1773,0,скакалка
1773868210565,295,-1733,0,скакалка
1773868210565,295,-1688,0,скакалка
1773868210565,295,-1633,0,скакалка
1773868210565,295,-1586,0,скакалка
1773868210565,295,-1556,0,скакалка
1773868210565,295,-1536,0,скакалка
1773868210565,295,-1504,0,скакалка
1773868210565,295,-1476,0,скакалка
1773868210565,295,-1454,0,скакалка
1773868210565,295,-1434,0,скакалка
1773868210565,295,-1409,0,скакалка
1773868210565,295,-1354,0,скакалка
1773868210565,295,-1274,0,скакалка
1773868210565,295,-1219,0,скакалка
1773868210565,295,-1192,0,скакалка
1773868210565,295,-1174,0,скакалка
1773868210565,295,-1159,0,скакалка
1773868210565,295,-1119,0,скакалка
1773868210565,295,-1070,0,скакалка
1773868210565,295,-1047,0,скакалка
1773868210565,295,-1045,0,скакалка
1773868210579,295,-1040,0,скакалка
1773868210579,295,-1065,0,скакалка
1773868210579,295,-1072,0,скакалка
1773868210579,295,-880,0,скакалка
1773868210579,295,-493,0,скакалка
1773868210579,295,-276,0,скакалка
1773868210579,295,-344,0,скакалка
1773868210579,295,-346,0,скакалка
1773868210579,295,-416,0,скакалка
1773868210579,295,-735,0,скакалка
1773868210579,295,-910,0,скакалка
1773868210579,295,-853,0,скакалка
1773868210579,295,-833,0,скакалка
1773868210579,295,-855,0,скакалка
1773868210579,295,-823,0,скакалка
1773868210579,295,-798,0,скакалка
1773868210587,295,-795,0,скакалка
1773868210587,295,-770,0,скакалка
1773868210587,295,-748,0,скакалка
1773868210587,295,-733,0,скакалка
1773868210587,295,-715,0,скакалка
1773868210587,295,-713,0,скакалка
1773868210587,295,-705,0,скакалка
1773868210587,295,-688,0,скакалка
1773868210587,295,-695,0,скакалка
1773868210587,295,-688,0,скакалка
1773868210587,295,-621,0,скакалка
1773868210587,295,-596,0,скакалка
1773868210587,295,-636,0,скакалка
1773868210587,295,-646,0,скакалка
1773868210587,295,-621,0,скакалка
1773868210595,295,-623,0,скакалка
1773868210595,295,-621,0,скакалка
1773868210595,295,-581,0,скакалка
1773868210595,295,-601,0,скакалка
1773868210595,295,-653,0,скакалка
1773868210595,295,-583,0,скакалка
1773868210595,295,-501,0,скакалка
1773868210595,295,-518,0,скакалка
1773868210595,295,-473,0,скакалка
1773868210595,295,-379,0,скакалка
1773868210595,296,-379,0,скакалка
1773868210657,291,-379,0,скакалка
1773868210751,291,-379,0,скакалка
1773868210843,290,-379,0,скакалка
1773868210944,437,-379,0,скакалка
1773868211042,434,-379,0,скакалка
1773868211095,434,-401,0,скакалка
1773868211103,434,-436,0,скакалка
1773868211104,434,-411,0,скакалка
1773868211104,434,-414,0,скакалка
1773868211104,434,-396,0,скакалка
1773868211105,434,-361,0,скакалка
1773868211105,434,-379,0,скакалка
1773868211105,434,-374,0,скакалка
1773868211105,434,-334,0,скакалка
1773868211105,434,-339,0,скакалка
1773868211105,434,-364,0,скакалка
1773868211105,434,-354,0,скакалка
1773868211105,434,-319,0,скакалка
1773868211105,434,-304,0,скакалка
1773868211105,434,-304,0,скакалка
1773868211105,434,-296,0,скакалка
1773868211105,434,-271,0,скакалка
1773868211113,434,-274,0,скакалка
1773868211113,434,-289,0,скакалка
1773868211113,434,-236,0,скакалка
1773868211113,434,-167,0,скакалка
1773868211113,434,-154,0,скакалка
1773868211113,434,-162,0,скакалка
1773868211113,434,-174,0,скакалка
1773868211113,434,-172,0,скакалка
1773868211113,434,-127,0,скакалка
1773868211113,434,-117,0,скакалка
1773868211113,434,-192,0,скакалка
1773868211113,434,-229,0,скакалка
1773868211113,434,-251,0,скакалка
1773868211113,434,-351,0,скакалка
1773868211113,434,-269,0,скакалка
1773868211113,434,192,0,скакалка
1773868211121,434,526,0,скакалка
1773868211121,434,406,0,скакалка
1773868211121,434,311,0,скакалка
1773868211121,434,224,0,скакалка
1773868211121,434,-144,0,скакалка
1773868211121,434,-426,0,скакалка
1773868211121,434,-421,0,скакалка
1773868211121,434,-314,0,скакалка
1773868211121,434,-256,0,скакалка
1773868211121,434,-276,0,скакалка
1773868211121,434,-296,0,скакалка
1773868211121,434,-296,0,скакалка
1773868211121,434,-316,0,скакалка
1773868211121,434,-341,0,скакалка
1773868211121,434,-356,0,скакалка
1773868211121,434,-374,0,скакалка
1773868211121,434,-399,0,скакалка
1773868211129,434,-436,0,скакалка
1773868211129,434,-471,0,скакалка
1773868211130,434,-476,0,скакалка
1773868211130,434,-478,0,скакалка
1773868211131,434,-513,0,скакалка
1773868211131,434,-543,0,скакалка
1773868211131,434,-538,0,скакалка
1773868211132,434,-548,0,скакалка
1773868211132,434,-593,0,скакалка
1773868211132,434,-613,0,скакалка
1773868211133,434,-596,0,скакалка
1773868211133,434,-601,0,скакалка
1773868211133,434,-631,0,скакалка
1773868211135,434,-626,0,скакалка
1773868211135,434,-601,0,скакалка
1773868211136,434,-621,0,скакалка
1773868211136,434,-638,0,скакалка
1773868211136,434,-596,0,скакалка
1773868211137,434,-586,0,скакалка
1773868211137,434,-616,0,скакалка
1773868211137,434,-621,0,скакалка
1773868211138,434,-611,0,скакалка
1773868211138,434,-618,0,скакалка
1773868211148,338,-618,0,скакалка
1773868211235,320,-618,0,скакалка
1773868211365,540,-618,0,скакалка
1773868211435,510,-618,0,скакалка
1773868211542,364,-618,0,скакалка
1773868211628,364,-628,0,скакалка
1773868211628,364,-628,0,скакалка
1773868211643,364,-626,0,скакалка
1773868211643,364,-631,0,скакалка
1773868211644,364,-621,0,скакалка
1773868211644,364,-613,0,скакалка
1773868211645,364,-618,0,скакалка
1773868211645,364,-606,0,скакалка
1773868211645,364,-598,0,скакалка
1773868211645,364,-623,0,скакалка
1773868211645,364,-616,0,скакалка
1773868211645,364,-566,0,скакалка
1773868211645,364,-583,0,скакалка
1773868211645,364,-745,0,скакалка
1773868211645,364,-887,0,скакалка
1773868211645,364,-868,0,скакалка
1773868211650,364,-840,0,скакалка
1773868211650,364,-870,0,скакалка
1773868211650,364,-855,0,скакалка
1773868211650,364,-763,0,скакалка
1773868211650,364,-703,0,скакалка
1773868211650,364,-768,0,скакалка
1773868211650,364,-853,0,скакалка
1773868211650,364,-848,0,скакалка
1773868211650,364,-845,0,скакалка
1773868211650,364,-803,0,скакалка
1773868211650,364,-558,0,скакалка
1773868211650,364,-309,0,скакалка
1773868211650,364,-386,0,скакалка
1773868211650,364,-508,0,скакалка
1773868211650,364,-294,0,скакалка
1773868211650,364,-231,0,скакалка
1773868211650,364,-603,0,скакалка
1773868211650,364,-820,0,скакалка
1773868211650,364,-750,0,скакалка
1773868211650,364,-765,0,скакалка
1773868211650,364,-813,0,скакалка
1773868211650,364,-753,0,скакалка
1773868211650,364,-733,0,скакалка
1773868211650,364,-770,0,скакалка
1773868211650,364,-770,0,скакалка
1773868211663,364,-778,0,скакалка
1773868211663,364,-750,0,скакалка
1773868211663,364,-656,0,скакалка
1773868211663,364,-598,0,скакалка
1773868211663,364,-593,0,скакалка
1773868211663,364,-568,0,скакалка
1773868211663,364,-538,0,скакалка
1773868211663,364,-541,0,скакалка
1773868211663,364,-533,0,скакалка
1773868211663,364,-503,0,скакалка
1773868211663,364,-491,0,скакалка
1773868211663,364,-491,0,скакалка
1773868211663,364,-468,0,скакалка
1773868211663,364,-453,0,скакалка
1773868211663,364,-466,0,скакалка
1773868211663,364,-481,0,скакалка
1773868211663,364,-488,0,скакалка
1773868211663,364,-511,0,скакалка
1773868211671,364,-546,0,скакалка
1773868211671,364,-578,0,скакалка
1773868211671,364,-603,0,скакалка
1773868211671,364,-591,0,скакалка
1773868211671,364,-561,0,скакалка
1773868211671,364,-583,0,скакалка
1773868211671,364,-583,0,скакалка
1773868211671,364,-556,0,скакалка
1773868211671,364,-621,0,скакалка
1773868211671,364,-646,0,скакалка
1773868211671,364,-528,0,скакалка
1773868211671,364,-491,0,скакалка
1773868211671,364,-558,0,скакалка
1773868211671,364,-548,0,скакалка
1773868211671,314,-548,0,скакалка
1773868211752,296,-548,0,скакалка
1773868211852,291,-548,0,скакалка
1773868211951,292,-548,0,скакалка
1773868212051,288,-548,0,скакалка
1773868212143,288,-548,0,скакалка
1773868212242,288,-548,0,скакалка
1773868212270,288,-501,0,скакалка
1773868212270,288,-501,0,скакалка
1773868212270,288,-511,0,скакалка
1773868212270,288,-498,0,скакалка
1773868212275,288,-503,0,скакалка
1773868212275,288,-551,0,скакалка
1773868212275,288,-546,0,скакалка
1773868212275,288,-496,0,скакалка
1773868212278,288,-483,0,скакалка
1773868212278,288,-451,0,скакалка
1773868212278,288,-443,0,скакалка
1773868212278,288,-493,0,скакалка
1773868212278,288,-486,0,скакалка
1773868212278,288,-516,0,скакалка
1773868212278,288,-578,0,скакалка
1773868212278,288,-581,0,скакалка
1773868212278,288,-695,0,скакалка
1773868212278,288,-950,0,скакалка
1773868212278,288,-1075,0,скакалка
1773868212278,288,-1050,0,скакалка
1773868212278,288,-1025,0,скакалка
1773868212278,288,-965,0,скакалка
1773868212278,288,-758,0,скакалка
1773868212278,288,-441,0,скакалка
1773868212278,288,-379,0,скакалка
1773868212278,288,-531,0,скакалка
1773868212286,288,-478,0,скакалка
1773868212286,288,-556,0,скакалка
1773868212286,288,-935,0,скакалка
1773868212286,288,-1070,0,скакалка
1773868212286,288,-937,0,скакалка
1773868212286,288,-902,0,скакалка
1773868212286,288,-907,0,скакалка
1773868212286,288,-860,0,скакалка
1773868212286,288,-860,0,скакалка
1773868212286,288,-840,0,скакалка
1773868212286,288,-745,0,скакалка
1773868212286,288,-740,0,скакалка
1773868212286,288,-783,0,скакалка
1773868212286,288,-770,0,скакалка
1773868212286,288,-778,0,скакалка
1773868212286,288,-750,0,скакалка
1773868212286,288,-675,0,скакалка
1773868212286,288,-653,0,скакалка
1773868212286,288,-648,0,скакалка
1773868212294,288,-636,0,скакалка
1773868212295,288,-623,0,скакалка
1773868212295,288,-601,0,скакалка
1773868212295,288,-583,0,скакалка
1773868212295,288,-588,0,скакалка
1773868212295,288,-596,0,скакалка
1773868212295,288,-563,0,скакалка
1773868212295,288,-546,0,скакалка
1773868212295,288,-563,0,скакалка
1773868212295,288,-566,0,скакалка
1773868212295,288,-573,0,скакалка
1773868212295,288,-593,0,скакалка
1773868212295,288,-578,0,скакалка
1773868212295,288,-571,0,скакалка
1773868212295,288,-603,0,скакалка
1773868212295,288,-608,0,скакалка
1773868212295,288,-576,0,скакалка
1773868212295,288,-576,0,скакалка
1773868212295,288,-586,0,скакалка
1773868212303,288,-566,0,скакалка
1773868212303,288,-558,0,скакалка
1773868212303,288,-573,0,скакалка
1773868212303,288,-553,0,скакалка
1773868212303,288,-543,0,скакалка
1773868212303,288,-581,0,скакалка
1773868212303,288,-586,0,скакалка
1773868212303,288,-571,0,скакалка
1773868212303,288,-593,0,скакалка
1773868212345,285,-593,0,скакалка
1773868212508,286,-593,0,скакалка
1773868212545,284,-593,0,скакалка
1773868212643,283,-593,0,скакалка
1773868212734,284,-593,0,скакалка
1773868212810,284,-608,0,скакалка
1773868212810,284,-601,0,скакалка
1773868212813,284,-611,0,скакалка
1773868212814,284,-608,0,скакалка
1773868212815,284,-591,0,скакалка
1773868212815,284,-581,0,скакалка
1773868212815,284,-553,0,скакалка
1773868212815,284,-518,0,скакалка
1773868212815,284,-516,0,скакалка
1773868212815,284,-516,0,скакалка
1773868212815,284,-508,0,скакалка
1773868212815,284,-491,0,скакалка
1773868212815,284,-473,0,скакалка
1773868212815,284,-463,0,скакалка
1773868212815,284,-448,0,скакалка
1773868212815,284,-471,0,скакалка
1773868212815,284,-508,0,скакалка
1773868212815,284,-414,0,скакалка
1773868212815,284,-182,0,скакалка
1773868212815,284,-24,0,скакалка
1773868212815,284,-37,0,скакалка
1773868212815,284,-22,0,скакалка
1773868212815,284,-127,0,скакалка
1773868212815,284,-438,0,скакалка
1773868212815,284,-593,0,скакалка
1773868212815,284,-628,0,скакалка
1773868212815,284,-690,0,скакалка
1773868212815,284,-646,0,скакалка
1773868212815,284,-596,0,скакалка
1773868212815,284,-648,0,скакалка
1773868212815,284,-673,0,скакалка
1773868212815,284,-616,0,скакалка
1773868212815,284,-578,0,скакалка
1773868212815,284,-601,0,скакалка
1773868212815,284,-618,0,скакалка
1773868212815,284,-608,0,скакалка
1773868212815,284,-583,0,скакалка
1773868212829,284,-546,0,скакалка
1773868212829,284,-566,0,скакалка
1773868212829,284,-626,0,скакалка
1773868212829,284,-571,0,скакалка
1773868212829,284,-451,0,скакалка
1773868212829,284,-463,0,скакалка
1773868212829,284,-508,0,скакалка
1773868212829,284,-478,0,скакалка
1773868212829,284,-483,0,скакалка
1773868212829,284,-538,0,скакалка
1773868212829,284,-578,0,скакалка
1773868212829,284,-556,0,скакалка
1773868212829,284,-528,0,скакалка
1773868212829,284,-556,0,скакалка
1773868212829,284,-558,0,скакалка
1773868212829,284,-493,0,скакалка
1773868212829,284,-451,0,скакалка
1773868212829,284,-426,0,скакалка
1773868212829,284,-336,0,скакалка
1773868212829,284,-249,0,скакалка
1773868212837,284,-226,0,скакалка
1773868212837,284,-204,0,скакалка
1773868212837,284,-172,0,скакалка
1773868212837,284,-154,0,скакалка
1773868212837,284,-149,0,скакалка
1773868212837,284,-147,0,скакалка
1773868212837,284,-132,0,скакалка
1773868212837,284,-137,0,скакалка
1773868212837,284,-149,0,скакалка
1773868212837,284,-132,0,скакалка
1773868212837,284,-149,0,скакалка
1773868212837,284,-194,0,скакалка
1773868212837,284,-192,0,скакалка
1773868212837,284,-169,0,скакалка
1773868212837,284,-162,0,скакалка
1773868212837,284,-92,0,скакалка
1773868212862,328,-92,0,скакалка
1773868212952,271,-92,0,скакалка
1773868213059,284,-92,0,скакалка
1773868213151,284,-92,0,скакалка
1773868213243,282,-92,0,скакалка
1773868213349,281,-92,0,скакалка
1773868213395,281,29,0,скакалка
1773868213395,281,92,0,скакалка
1773868213397,281,147,0,скакалка
1773868213399,281,251,0,скакалка
1773868213399,281,281,0,скакалка
1773868213399,281,271,0,скакалка
1773868213399,281,341,0,скакалка
1773868213399,281,406,0,скакалка
1773868213399,281,419,0,скакалка
1773868213399,281,448,0,скакалка
1773868213399,281,458,0,скакалка
1773868213399,281,384,0,скакалка
1773868213399,281,369,0,скакалка
1773868213399,281,553,0,скакалка
1773868213399,281,803,0,скакалка
1773868213399,281,775,0,скакалка
1773868213399,281,461,0,скакалка
1773868213399,281,157,0,скакалка
1773868213399,281,-214,0,скакалка
1773868213399,281,-633,0,скакалка
1773868213399,281,-833,0,скакалка
1773868213399,281,-895,0,скакалка
1773868213399,281,-917,0,скакалка
1773868213399,281,-870,0,скакалка
1773868213399,281,-825,0,скакалка
1773868213399,281,-835,0,скакалка
1773868213399,281,-845,0,скакалка
1773868213399,281,-835,0,скакалка
1773868213399,281,-813,0,скакалка
1773868213399,281,-780,0,скакалка
1773868213399,281,-778,0,скакалка
1773868213412,281,-768,0,скакалка
1773868213412,281,-685,0,скакалка
1773868213412,281,-638,0,скакалка
1773868213412,281,-636,0,скакалка
1773868213412,281,-591,0,скакалка
1773868213412,281,-523,0,скакалка
1773868213412,281,-438,0,скакалка
1773868213412,281,-416,0,скакалка
1773868213412,281,-488,0,скакалка
1773868213412,281,-516,0,скакалка
1773868213412,281,-493,0,скакалка
1773868213412,281,-496,0,скакалка
1773868213412,281,-551,0,скакалка
1773868213412,281,-601,0,скакалка
1773868213412,281,-601,0,скакалка
1773868213412,281,-573,0,скакалка
1773868213412,281,-553,0,скакалка
1773868213420,281,-596,0,скакалка
1773868213420,281,-621,0,скакалка
1773868213420,281,-506,0,скакалка
1773868213420,281,-354,0,скакалка
1773868213420,281,-274,0,скакалка
1773868213420,281,-231,0,скакалка
1773868213420,281,-137,0,скакалка
1773868213420,281,14,0,скакалка
1773868213420,281,137,0,скакалка
1773868213420,281,167,0,скакалка
1773868213420,281,162,0,скакалка
1773868213420,281,199,0,скакалка
1773868213420,281,194,0,скакалка
1773868213420,281,139,0,скакалка
1773868213420,281,179,0,скакалка
1773868213428,281,284,0,скакалка
1773868213428,281,344,0,скакалка
1773868213428,281,344,0,скакалка
1773868213428,281,344,0,скакалка
1773868213428,281,384,0,скакалка
1773868213428,281,396,0,скакалка
1773868213428,281,386,0,скакалка
1773868213428,281,466,0,скакалка
1773868213428,281,508,0,скакалка
1773868213428,281,414,0,скакалка
1773868213445,276,414,0,скакалка
1773868213590,283,414,0,скакалка
1773868213645,282,414,0,скакалка
1773868213735,282,414,0,скакалка
1773868213842,281,414,0,скакалка
1773868213934,281,414,0,скакалка
1773868213977,281,349,0,скакалка
1773868213977,281,366,0,скакалка
1773868213977,281,379,0,скакалка
1773868213977,281,374,0,скакалка
1773868213977,281,329,0,скакалка
1773868213977,281,276,0,скакалка
1773868213977,281,261,0,скакалка
1773868213985,281,204,0,скакалка
1773868213985,281,192,0,скакалка
1773868213987,281,443,0,скакалка
1773868213987,281,803,0,скакалка
1773868213987,281,922,0,скакалка
1773868213987,281,833,0,скакалка
1773868213987,281,628,0,скакалка
1773868213987,281,326,0,скакалка
1773868213987,281,117,0,скакалка
1773868213987,281,44,0,скакалка
1773868213987,281,4,0,скакалка
1773868213987,281,-14,0,скакалка
1773868213987,281,-52,0,скакалка
1773868213987,281,-147,0,скакалка
1773868213987,281,-274,0,скакалка
1773868213987,281,-531,0,скакалка
1773868213987,281,-907,0,скакалка
1773868213987,281,-1162,0,скакалка
1773868213995,281,-1247,0,скакалка
1773868213995,281,-1182,0,скакалка
1773868213995,281,-1005,0,скакалка
1773868213995,281,-982,0,скакалка
1773868213995,281,-1035,0,скакалка
1773868213995,281,-947,0,скакалка
1773868213995,281,-877,0,скакалка
1773868213995,281,-900,0,скакалка
1773868213995,281,-858,0,скакалка
1773868213995,281,-743,0,скакалка
1773868213995,281,-710,0,скакалка
1773868213995,281,-778,0,скакалка
1773868213995,281,-798,0,скакалка
1773868213995,281,-760,0,скакалка
1773868213995,281,-725,0,скакалка
1773868213995,281,-765,0,скакалка
1773868213995,281,-835,0,скакалка
1773868213995,281,-728,0,скакалка
1773868214003,281,-658,0,скакалка
1773868214003,281,-788,0,скакалка
1773868214003,281,-703,0,скакалка
1773868214003,281,-416,0,скакалка
1773868214003,281,-306,0,скакалка
1773868214003,281,-326,0,скакалка
1773868214003,281,-184,0,скакалка
1773868214003,281,284,0,скакалка
1773868214003,281,940,0,скакалка
1773868214003,281,1533,0,скакалка
1773868214003,281,2132,0,скакалка
1773868214003,281,2748,0,скакалка
1773868214003,281,3257,0,скакалка
1773868214003,281,3763,0,скакалка
1773868214003,281,4270,0,скакалка
1773868214003,281,4704,0,скакалка
1773868214003,281,5065,0,скакалка
1773868214003,281,5270,0,скакалка
1773868214003,281,5317,0,скакалка
1773868214011,281,5342,0,скакалка
1773868214011,281,5442,0,скакалка
1773868214011,281,5532,0,скакалка
1773868214011,281,5494,0,скакалка
1773868214011,281,5442,0,скакалка
1773868214011,281,5387,0,скакалка
1773868214011,281,5248,0,скакалка
1773868214011,281,5113,0,скакалка
1773868214011,281,4981,0,скакалка
1773868214011,281,4814,0,скакалка
1773868214011,281,4674,0,скакалка
1773868214044,281,4674,0,скакалка
1773868214134,273,4674,0,скакалка
1773868214234,280,4674,0,скакалка
1773868214344,280,4674,0,скакалка
1773868214458,278,4674,0,скакалка
1773868214469,278,4587,0,скакалка
1773868214478,278,4489,0,скакалка
1773868214478,278,4325,0,скакалка
1773868214480,278,4240,0,скакалка
1773868214480,278,4287,0,скакалка
1773868214480,278,4235,0,скакалка
1773868214480,278,3998,0,скакалка
1773868214480,278,3788,0,скакалка
1773868214480,278,3569,0,скакалка
1773868214480,278,3030,0,скакалка
1773868214480,278,2416,0,скакалка
1773868214480,278,2110,0,скакалка
1773868214480,278,1835,0,скакалка
1773868214480,278,1366,0,скакалка
1773868214480,278,755,0,скакалка
1773868214480,278,-84,0,скакалка
1773868214480,278,-1137,0,скакалка
1773868214480,278,-2292,0,скакалка
1773868214480,278,-3309,0,скакалка
1773868214480,278,-3983,0,скакалка
1773868214480,278,-4557,0,скакалка
1773868214480,278,-4998,0,скакалка
1773868214480,278,-5026,0,скакалка
1773868214480,278,-4936,0,скакалка
1773868214480,278,-4926,0,скакалка
1773868214480,278,-4769,0,скакалка
1773868214480,278,-4562,0,скакалка
1773868214480,278,-4517,0,скакалка
1773868214480,278,-4447,0,скакалка
1773868214480,278,-4158,0,скакалка
1773868214480,278,-3888,0,скакалка
1773868214480,278,-3898,0,скакалка
1773868214480,278,-3893,0,скакалка
1773868214480,278,-3696,0,скакалка
1773868214480,278,-3561,0,скакалка
1773868214495,278,-3417,0,скакалка
1773868214495,278,-2973,0,скакалка
1773868214495,278,-2491,0,скакалка
1773868214495,278,-2354,0,скакалка
1773868214495,278,-2319,0,скакалка
1773868214495,278,-2214,0,скакалка
1773868214495,278,-2192,0,скакалка
1773868214495,278,-2160,0,скакалка
1773868214495,278,-2097,0,скакалка
1773868214495,278,-2252,0,скакалка
1773868214495,278,-2544,0,скакалка
1773868214495,278,-2397,0,скакалка
1773868214495,278,-1938,0,скакалка
1773868214495,278,-1880,0,скакалка
1773868214495,278,-2062,0,скакалка
1773868214495,278,-1965,0,скакалка
1773868214495,278,-1633,0,скакалка
1773868214503,278,-1479,0,скакалка
1773868214503,278,-1748,0,скакалка
1773868214503,278,-1905,0,скакалка
1773868214503,278,-1479,0,скакалка
1773868214503,278,-1189,0,скакалка
1773868214503,278,-1329,0,скакалка
1773868214503,278,-1312,0,скакалка
1773868214503,278,-1169,0,скакалка
1773868214503,278,-1134,0,скакалка
1773868214503,278,-1099,0,скакалка
1773868214503,278,-1102,0,скакалка
1773868214503,278,-1164,0,скакалка
1773868214503,278,-1117,0,скакалка
1773868214503,278,-1097,0,скакалка
1773868214503,278,-1396,0,скакалка
1773868214503,278,-1638,0,скакалка
1773868214503,278,-1471,0,скакалка
1773868214503,278,-1219,0,скакалка
1773868214511,278,-985,0,скакалка
1773868214511,278,-758,0,скакалка
1773868214511,278,-753,0,скакалка
1773868214558,350,-753,0,скакалка
1773868214674,279,-753,0,скакалка
1773868214735,279,-753,0,скакалка
1773868214844,278,-753,0,скакалка
1773868214934,277,-753,0,скакалка
1773868215005,277,-641,0,скакалка
1773868215005,277,-241,0,скакалка
1773868215018,277,-299,0,скакалка
1773868215019,277,-838,0,скакалка
1773868215019,277,-985,0,скакалка
1773868215019,277,-715,0,скакалка
1773868215019,277,-798,0,скакалка
1773868215019,277,-1137,0,скакалка
1773868215019,277,-863,0,скакалка
1773868215019,277,-341,0,скакалка
1773868215019,277,-316,0,скакалка
1773868215019,277,-873,0,скакалка
1773868215019,277,-1553,0,скакалка
1773868215019,277,-1364,0,скакалка
1773868215019,277,-935,0,скакалка
1773868215019,277,-1159,0,скакалка
1773868215019,277,-1075,0,скакалка
1773868215019,277,-591,0,скакалка
1773868215019,277,-631,0,скакалка
1773868215019,277,-925,0,скакалка
1773868215019,277,-873,0,скакалка
1773868215019,277,-675,0,скакалка
1773868215029,277,-660,0,скакалка
1773868215029,277,-753,0,скакалка
1773868215029,277,-723,0,скакалка
1773868215029,277,-646,0,скакалка
1773868215029,277,-952,0,скакалка
1773868215029,277,-1394,0,скакалка
1773868215029,277,-1189,0,скакалка
1773868215029,277,-750,0,скакалка
1773868215029,277,-768,0,скакалка
1773868215029,277,-877,0,скакалка
1773868215029,277,-828,0,скакалка
1773868215029,277,-828,0,скакалка
1773868215029,277,-875,0,скакалка
1773868215029,277,-870,0,скакалка
1773868215029,277,-790,0,скакалка
1773868215029,277,-715,0,скакалка
1773868215029,277,-718,0,скакалка
1773868215029,277,-758,0,скакалка
1773868215029,277,-902,0,скакалка
1773868215029,277,-1149,0,скакалка
1773868215037,277,-1149,0,скакалка
1773868215037,277,-980,0,скакалка
1773868215037,277,-1022,0,скакалка
1773868215037,277,-1062,0,скакалка
1773868215037,277,-992,0,скакалка
1773868215037,277,-975,0,скакалка
1773868215037,277,-950,0,скакалка
1773868215037,277,-985,0,скакалка
1773868215037,277,-1035,0,скакалка
1773868215037,277,-972,0,скакалка
1773868215037,277,-925,0,скакалка
1773868215037,277,-795,0,скакалка
1773868215037,277,-665,0,скакалка
1773868215037,277,-788,0,скакалка
1773868215037,277,-873,0,скакалка
1773868215037,277,-695,0,скакалка
1773868215037,277,-551,0,скакалка
1773868215037,277,-653,0,скакалка
1773868215037,277,-720,0,скакалка
1773868215037,277,-448,0,скакалка
1773868215045,277,226,0,скакалка
1773868215045,277,1010,0,скакалка
1773868215045,277,1431,0,скакалка
1773868215045,277,1591,0,скакалка
1773868215045,277,1903,0,скакалка
1773868215045,277,2067,0,скакалка
1773868215045,277,1813,0,скакалка
1773868215045,277,1708,0,скакалка
1773868215045,277,1666,0,скакалка
1773868215045,277,1114,0,скакалка
1773868215045,277,798,0,скакалка
1773868215045,278,798,0,скакалка
1773868215143,278,798,0,скакалка
1773868215242,277,798,0,скакалка
1773868215342,278,798,0,скакалка
1773868215449,272,798,0,скакалка
1773868215552,277,798,0,скакалка
1773868215596,277,977,0,скакалка
1773868215596,277,803,0,скакалка
1773868215596,277,608,0,скакалка
1773868215604,277,738,0,скакалка
1773868215604,277,571,0,скакалка
1773868215604,277,351,0,скакалка
1773868215605,277,463,0,скакалка
1773868215605,277,331,0,скакалка
1773868215605,277,187,0,скакалка
1773868215605,277,426,0,скакалка
1773868215605,277,436,0,скакалка
1773868215605,277,249,0,скакалка
1773868215605,277,241,0,скакалка
1773868215605,277,326,0,скакалка
1773868215605,277,406,0,скакалка
1773868215605,277,396,0,скакалка
1773868215605,277,466,0,скакалка
1773868215612,277,611,0,скакалка
1773868215612,277,593,0,скакалка
1773868215612,277,606,0,скакалка
1773868215612,277,730,0,скакалка
1773868215612,277,788,0,скакалка
1773868215612,277,710,0,скакалка
1773868215612,277,568,0,скакалка
1773868215612,277,414,0,скакалка
1773868215612,277,301,0,скакалка
1773868215612,277,488,0,скакалка
1773868215612,277,690,0,скакалка
1773868215612,277,528,0,скакалка
1773868215612,277,456,0,скакалка
1773868215612,277,613,0,скакалка
1773868215612,277,616,0,скакалка
1773868215612,277,643,0,скакалка
1773868215612,277,728,0,скакалка
1773868215612,277,636,0,скакалка
1773868215612,277,1007,0,скакалка
1773868215620,277,1389,0,скакалка
1773868215620,277,803,0,скакалка
1773868215620,277,513,0,скакалка
1773868215620,277,992,0,скакалка
1773868215620,277,1050,0,скакалка
1773868215620,277,855,0,скакалка
1773868215620,277,975,0,скакалка
1773868215620,277,940,0,скакалка
1773868215620,277,770,0,скакалка
1773868215620,277,860,0,скакалка
1773868215620,277,895,0,скакалка
1773868215620,277,873,0,скакалка
1773868215620,277,1356,0,скакалка
1773868215620,277,2107,0,скакалка
1773868215620,277,2327,0,скакалка
1773868215620,277,2466,0,скакалка
1773868215620,277,3574,0,скакалка
1773868215620,277,4597,0,скакалка
1773868215628,277,4332,0,скакалка
1773868215628,277,4494,0,скакалка
1773868215628,277,5445,0,скакалка
1773868215628,277,5455,0,скакалка
1773868215628,277,5100,0,скакалка
1773868215628,277,5522,0,скакалка
1773868215628,277,5983,0,скакалка
1773868215628,277,6116,0,скакалка
1773868215628,277,6315,0,скакалка
1773868215628,277,6343,0,скакалка
1773868215628,277,6500,0,скакалка
1773868215628,277,6627,0,скакалка
1773868215628,277,6145,0,скакалка
1773868215628,277,5896,0,скакалка
1773868215628,277,5938,0,скакалка
1773868215628,277,5871,0,скакалка
1773868215628,277,5791,0,скакалка
1773868215628,277,5544,0,скакалка
1773868215628,277,5582,0,скакалка
1773868215655,278,5582,0,скакалка
1773868215774,278,5582,0,скакалка
1773868215851,277,5582,0,скакалка
1773868215957,279,5582,0,скакалка
1773868216050,278,5582,0,скакалка
1773868216142,277,5582,0,скакалка
1773868216187,277,5714,0,скакалка
1773868216188,277,5357,0,скакалка
1773868216188,277,5415,0,скакалка
1773868216188,277,6081,0,скакалка
1773868216188,277,6719,0,скакалка
1773868216188,277,7253,0,скакалка
1773868216188,277,6829,0,скакалка
1773868216188,277,6028,0,скакалка
1773868216188,277,5861,0,скакалка
1773868216188,277,5499,0,скакалка
1773868216188,277,5205,0,скакалка
1773868216188,277,4966,0,скакалка
1773868216188,277,4497,0,скакалка
1773868216188,277,4599,0,скакалка
1773868216194,277,5095,0,скакалка
1773868216195,277,5407,0,скакалка
1773868216196,277,5285,0,скакалка
1773868216196,277,4958,0,скакалка
1773868216196,277,5065,0,скакалка
1773868216196,277,5001,0,скакалка
1773868216196,277,4355,0,скакалка
1773868216196,277,4187,0,скакалка
1773868216196,277,4504,0,скакалка
1773868216196,277,4754,0,скакалка
1773868216196,277,5644,0,скакалка
1773868216196,277,6856,0,скакалка
1773868216196,277,7206,0,скакалка
1773868216196,277,6622,0,скакалка
1773868216196,277,5806,0,скакалка
1773868216196,277,5220,0,скакалка
1773868216196,277,4726,0,скакалка
1773868216196,277,5105,0,скакалка
1773868216196,277,4921,0,скакалка
1773868216196,277,3888,0,скакалка
1773868216196,277,4502,0,скакалка
1773868216196,277,4801,0,скакалка
1773868216196,277,4559,0,скакалка
1773868216196,277,5537,0,скакалка
1773868216196,277,6447,0,скакалка
1773868216196,277,8508,0,скакалка
1773868216196,277,13227,0,скакалка
1773868216196,277,16230,0,скакалка
1773868216196,277,16622,0,скакалка
1773868216196,277,19078,0,скакалка
1773868216196,277,20430,0,скакалка
1773868216196,277,20430,0,скакалка
1773868216196,277,20430,0,скакалка
1773868216196,277,20430,0,скакалка
1773868216196,277,20430,0,скакалка
1773868216211,277,20430,0,скакалка
1773868216211,277,20430,0,скакалка
1773868216211,277,20430,0,скакалка
1773868216211,277,20430,0,скакалка
1773868216211,277,20430,0,скакалка
1773868216211,277,20430,0,скакалка
1773868216211,277,20430,0,скакалка
1773868216211,277,16958,0,скакалка
1773868216211,277,9268,0,скакалка
1773868216211,277,3459,0,скакалка
1773868216211,277,386,0,скакалка
1773868216217,277,-1573,0,скакалка
1773868216217,277,-2943,0,скакалка
1773868216217,277,-2756,0,скакалка
1773868216217,277,-2359,0,скакалка
1773868216217,277,-2392,0,скакалка
1773868216217,277,-2269,0,скакалка
1773868216217,277,-1918,0,скакалка
1773868216217,277,-1566,0,скакалка
1773868216217,277,-1538,0,скакалка
1773868216217,277,-1307,0,скакалка
1773868216217,277,-753,0,скакалка
1773868216217,277,-538,0,скакалка
1773868216217,277,-463,0,скакалка
1773868216245,279,-463,0,скакалка
1773868216333,279,-463,0,скакалка
1773868216434,280,-463,0,скакалка
1773868216558,279,-463,0,скакалка
1773868216651,278,-463,0,скакалка
1773868216768,278,-371,0,скакалка
1773868216768,278,-264,0,скакалка
1773868216773,278,-174,0,скакалка
1773868216774,278,-64,0,скакалка
1773868216774,278,488,0,скакалка
1773868216774,278,730,0,скакалка
1773868216774,278,386,0,скакалка
1773868216774,278,526,0,скакалка
1773868216778,278,850,0,скакалка
1773868216778,278,763,0,скакалка
1773868216778,278,616,0,скакалка
1773868216778,278,628,0,скакалка
1773868216778,278,658,0,скакалка
1773868216778,278,456,0,скакалка
1773868216778,278,431,0,скакалка
1773868216778,278,678,0,скакалка
1773868216778,278,581,0,скакалка
1773868216778,278,434,0,скакалка
1773868216778,278,511,0,скакалка
1773868216778,278,536,0,скакалка
1773868216778,278,486,0,скакалка
1773868216778,278,349,0,скакалка
1773868216778,278,466,0,скакалка
1773868216778,278,648,0,скакалка
1773868216778,278,314,0,скакалка
1773868216786,278,189,0,скакалка
1773868216786,278,518,0,скакалка
1773868216786,278,438,0,скакалка
1773868216786,278,79,0,скакалка
1773868216786,278,-9,0,скакалка
1773868216786,278,-7,0,скакалка
1773868216786,278,-187,0,скакалка
1773868216786,278,-359,0,скакалка
1773868216786,278,-396,0,скакалка
1773868216786,278,-508,0,скакалка
1773868216786,278,-648,0,скакалка
1773868216786,278,-653,0,скакалка
1773868216786,278,-641,0,скакалка
1773868216786,278,-780,0,скакалка
1773868216786,278,-942,0,скакалка
1773868216786,278,-970,0,скакалка
1773868216786,278,-987,0,скакалка
1773868216794,278,-1072,0,скакалка
1773868216794,278,-1134,0,скакалка
1773868216795,278,-1192,0,скакалка
1773868216795,278,-1279,0,скакалка
1773868216795,278,-1376,0,скакалка
1773868216795,278,-1386,0,скакалка
1773868216795,278,-1257,0,скакалка
1773868216795,278,-1202,0,скакалка
1773868216795,278,-1144,0,скакалка
1773868216795,278,-977,0,скакалка
1773868216795,278,-1159,0,скакалка
1773868216795,278,-1471,0,скакалка
1773868216795,278,-1386,0,скакалка
1773868216795,278,-1334,0,скакалка
1773868216795,278,-1566,0,скакалка
1773868216795,278,-1726,0,скакалка
1773868216795,278,-1631,0,скакалка
1773868216795,278,-1543,0,скакалка
1773868216795,278,-1686,0,скакалка
1773868216795,278,-1755,0,скакалка
1773868216803,278,-1721,0,скакалка
1773868216803,278,-1820,0,скакалка
1773868216803,278,-1933,0,скакалка
1773868216803,278,-1880,0,скакалка
1773868216803,278,-1788,0,скакалка
1773868216803,278,-1928,0,скакалка
1773868216803,278,-2087,0,скакалка
1773868216803,278,-1958,0,скакалка
1773868216803,278,-1930,0,скакалка
1773868216803,278,-2180,0,скакалка
1773868216803,278,-2224,0,скакалка
1773868216811,280,-2224,0,скакалка
1773868216869,279,-2224,0,скакалка
1773868216951,279,-2224,0,скакалка
1773868217050,280,-2224,0,скакалка
1773868217151,275,-2224,0,скакалка
1773868217250,284,-2224,0,скакалка
1773868217342,282,-2224,0,скакалка
1773868217350,282,-2120,0,скакалка
1773868217350,282,-2304,0,скакалка
1773868217350,282,-2586,0,скакалка
1773868217350,282,-2696,0,скакалка
1773868217350,282,-2678,0,скакалка
1773868217350,282,-2833,0,скакалка
1773868217350,282,-3357,0,скакалка
1773868217350,282,-3821,0,скакалка
1773868217350,282,-4023,0,скакалка
1773868217350,282,-4153,0,скакалка
1773868217350,282,-4272,0,скакалка
1773868217362,282,-4636,0,скакалка
1773868217362,282,-5235,0,скакалка
1773868217362,282,-5499,0,скакалка
1773868217362,282,-5497,0,скакалка
1773868217362,282,-5614,0,скакалка
1773868217362,282,-5559,0,скакалка
1773868217362,282,-5297,0,скакалка
1773868217362,282,-5504,0,скакалка
1773868217362,282,-6043,0,скакалка
1773868217362,282,-6170,0,скакалка
1773868217362,282,-5936,0,скакалка
1773868217362,282,-5734,0,скакалка
1773868217362,282,-5839,0,скакалка
1773868217362,282,-6210,0,скакалка
1773868217362,282,-6562,0,скакалка
1773868217362,282,-6811,0,скакалка
1773868217362,282,-6966,0,скакалка
1773868217362,282,-7056,0,скакалка
1773868217370,282,-7163,0,скакалка
1773868217370,282,-7285,0,скакалка
1773868217370,282,-7418,0,скакалка
1773868217370,282,-7515,0,скакалка
1773868217370,282,-7482,0,скакалка
1773868217370,282,-7455,0,скакалка
1773868217370,282,-7552,0,скакалка
1773868217373,282,-7699,0,скакалка
1773868217373,282,-7807,0,скакалка
1773868217373,282,-7849,0,скакалка
1773868217373,282,-7899,0,скакалка
1773868217373,282,-7959,0,скакалка
1773868217373,282,-8001,0,скакалка
1773868217373,282,-8049,0,скакалка
1773868217373,282,-8138,0,скакалка
1773868217373,282,-8206,0,скакалка
1773868217373,282,-7996,0,скакалка
1773868217379,282,-7405,0,скакалка
1773868217379,282,-6964,0,скакалка
1773868217379,282,-7076,0,скакалка
1773868217379,282,-7285,0,скакалка
1773868217379,282,-7370,0,скакалка
1773868217379,282,-7540,0,скакалка
1773868217379,282,-7607,0,скакалка
1773868217379,282,-7433,0,скакалка
1773868217379,282,-7250,0,скакалка
1773868217379,282,-7136,0,скакалка
1773868217379,282,-6944,0,скакалка
1773868217379,282,-6724,0,скакалка
1773868217379,282,-6547,0,скакалка
1773868217379,282,-6367,0,скакалка
1773868217379,282,-6180,0,скакалка
1773868217379,282,-5986,0,скакалка
1773868217379,282,-5816,0,скакалка
1773868217387,282,-5679,0,скакалка
1773868217387,282,-5554,0,скакалка
1773868217387,282,-5462,0,скакалка
1773868217387,282,-5387,0,скакалка
1773868217387,282,-5315,0,скакалка
1773868217387,282,-5255,0,скакалка
1773868217387,282,-5185,0,скакалка
1773868217387,282,-5095,0,скакалка
1773868217387,282,-5003,0,скакалка
1773868217387,282,-4921,0,скакалка
1773868217452,280,-4921,0,скакалка
1773868217550,284,-4921,0,скакалка
1773868217657,290,-4921,0,скакалка
1773868217727,272,-4921,0,скакалка
1773868217851,272,-4831,0,скакалка
1773868217851,272,-4714,0,скакалка
1773868217853,272,-4589,0,скакалка
1773868217855,272,-4472,0,скакалка
1773868217855,272,-4375,0,скакалка
1773868217855,272,-4300,0,скакалка
1773868217855,272,-4202,0,скакалка
1773868217855,272,-4100,0,скакалка
1773868217855,272,-4038,0,скакалка
1773868217855,272,-3973,0,скакалка
1773868217855,272,-3836,0,скакалка
1773868217855,272,-3733,0,скакалка
1773868217855,272,-3748,0,скакалка
1773868217855,272,-3711,0,скакалка
1773868217860,272,-3589,0,скакалка
1773868217860,272,-3524,0,скакалка
1773868217860,272,-3489,0,скакалка
1773868217860,272,-3404,0,скакалка
1773868217860,272,-3309,0,скакалка
1773868217860,272,-3242,0,скакалка
1773868217860,272,-3172,0,скакалка
1773868217860,272,-3100,0,скакалка
1773868217860,272,-3038,0,скакалка
1773868217860,272,-2953,0,скакалка
1773868217860,272,-2863,0,скакалка
1773868217860,272,-2831,0,скакалка
1773868217860,272,-2788,0,скакалка
1773868217860,272,-2698,0,скакалка
1773868217860,272,-2688,0,скакалка
1773868217860,272,-2658,0,скакалка
1773868217869,272,-2516,0,скакалка
1773868217869,272,-2436,0,скакалка
1773868217869,272,-2434,0,скакалка
1773868217869,272,-2382,0,скакалка
1773868217869,272,-2252,0,скакалка
1773868217869,272,-2157,0,скакалка
1773868217869,272,-2140,0,скакалка
1773868217869,272,-2125,0,скакалка
1773868217869,272,-2140,0,скакалка
1773868217869,272,-2252,0,скакалка
1773868217869,272,-2262,0,скакалка
1773868217869,272,-1833,0,скакалка
1773868217869,272,-1119,0,скакалка
1773868217869,272,-892,0,скакалка
1773868217869,272,-1274,0,скакалка
1773868217869,272,-1524,0,скакалка
1773868217869,272,-1666,0,скакалка
1773868217869,272,-2005,0,скакалка
1773868217869,272,-2137,0,скакалка
1773868217877,272,-2050,0,скакалка
1773868217877,272,-2027,0,скакалка
1773868217877,272,-1987,0,скакалка
1773868217877,272,-1938,0,скакалка
1773868217877,272,-1943,0,скакалка
1773868217877,272,-1958,0,скакалка
1773868217877,272,-1938,0,скакалка
1773868217877,272,-1830,0,скакалка
1773868217877,272,-1686,0,скакалка
1773868217877,272,-1571,0,скакалка
1773868217877,272,-1439,0,скакалка
1773868217877,272,-1274,0,скакалка
1773868217877,272,-1147,0,скакалка
1773868217877,272,-1032,0,скакалка
1773868217877,272,-835,0,скакалка
1773868217877,272,-558,0,скакалка
1773868217877,272,-184,0,скакалка
1773868217877,272,301,0,скакалка
1773868217877,272,808,0,скакалка
1773868217885,272,1199,0,скакалка
1773868217885,272,1436,0,скакалка
1773868217885,272,1616,0,скакалка
1773868217885,272,1858,0,скакалка
1773868217885,272,2224,0,скакалка
1773868217885,284,2224,0,скакалка
1773868217942,317,2224,0,скакалка
1773868218049,282,2224,0,скакалка
1773868218157,285,2224,0,скакалка
1773868218258,288,2224,0,скакалка
1773868218351,285,2224,0,скакалка
1773868218385,285,2703,0,скакалка
1773868218385,285,3165,0,скакалка
1773868218392,285,3484,0,скакалка
1773868218392,285,3646,0,скакалка
1773868218394,285,3721,0,скакалка
1773868218394,285,3788,0,скакалка
1773868218395,285,3843,0,скакалка
1773868218395,285,3851,0,скакалка
1773868218395,285,3856,0,скакалка
1773868218395,285,3796,0,скакалка
1773868218395,285,3728,0,скакалка
1773868218395,285,3783,0,скакалка
1773868218395,285,3736,0,скакалка
1773868218395,285,3576,0,скакалка
1773868218395,285,3474,0,скакалка
1773868218395,285,3322,0,скакалка
1773868218395,285,3090,0,скакалка
1773868218395,285,2806,0,скакалка
1773868218395,285,2342,0,скакалка
1773868218395,285,1718,0,скакалка
1773868218395,285,1154,0,скакалка
1773868218395,285,391,0,скакалка
1773868218395,285,-758,0,скакалка
1773868218395,285,-1681,0,скакалка
1773868218395,285,-2496,0,скакалка
1773868218395,285,-3449,0,скакалка
1773868218395,285,-3763,0,скакалка
1773868218395,285,-3631,0,скакалка
1773868218395,285,-3736,0,скакалка
1773868218395,285,-3791,0,скакалка
1773868218395,285,-3723,0,скакалка
1773868218395,285,-3763,0,скакалка
1773868218395,285,-3793,0,скакалка
1773868218395,285,-3746,0,скакалка
1773868218395,285,-3619,0,скакалка
1773868218395,285,-3332,0,скакалка
1773868218395,285,-3070,0,скакалка
1773868218395,285,-3115,0,скакалка
1773868218395,285,-3115,0,скакалка
1773868218395,285,-2693,0,скакалка
1773868218410,285,-2531,0,скакалка
1773868218410,285,-2771,0,скакалка
1773868218410,285,-2756,0,скакалка
1773868218410,285,-2616,0,скакалка
1773868218410,285,-2628,0,скакалка
1773868218410,285,-2621,0,скакалка
1773868218410,285,-2579,0,скакалка
1773868218410,285,-2544,0,скакалка
1773868218410,285,-2476,0,скакалка
1773868218410,285,-2416,0,скакалка
1773868218410,285,-2352,0,скакалка
1773868218410,285,-2274,0,скакалка
1773868218410,285,-2232,0,скакалка
1773868218410,285,-2177,0,скакалка
1773868218410,285,-2067,0,скакалка
1773868218410,285,-1972,0,скакалка
1773868218410,285,-1890,0,скакалка
1773868218418,285,-1768,0,скакалка
1773868218418,285,-1706,0,скакалка
1773868218418,285,-1723,0,скакалка
1773868218418,285,-1693,0,скакалка
1773868218418,285,-1648,0,скакалка
1773868218418,285,-1666,0,скакалка
1773868218418,285,-1638,0,скакалка
1773868218418,285,-1586,0,скакалка
1773868218418,285,-1583,0,скакалка
1773868218418,285,-1593,0,скакалка
1773868218418,285,-1591,0,скакалка
1773868218418,285,-1598,0,скакалка
1773868218418,285,-1606,0,скакалка
1773868218418,285,-1611,0,скакалка
1773868218418,285,-1603,0,скакалка
1773868218418,285,-1551,0,скакалка
1773868218444,294,-1551,0,скакалка
1773868218559,286,-1551,0,скакалка
1773868218643,287,-1551,0,скакалка
1773868218741,288,-1551,0,скакалка
1773868218843,289,-1551,0,скакалка
1773868218957,289,-1551,0,скакалка
1773868218968,289,-1504,0,скакалка
1773868218968,289,-1489,0,скакалка
1773868218968,289,-1449,0,скакалка
1773868218978,289,-1431,0,скакалка
1773868218979,289,-1436,0,скакалка
1773868218979,289,-1401,0,скакалка
1773868218979,289,-1369,0,скакалка
1773868218979,289,-1354,0,скакалка
1773868218979,289,-1366,0,скакалка
1773868218979,289,-1421,0,скакалка
1773868218982,289,-1434,0,скакалка
1773868218982,289,-1379,0,скакалка
1773868218982,289,-1361,0,скакалка
1773868218982,289,-1399,0,скакалка
1773868218982,289,-1406,0,скакалка
1773868218982,289,-1354,0,скакалка
1773868218982,289,-1309,0,скакалка
1773868218982,289,-1319,0,скакалка
1773868218982,289,-1297,0,скакалка
1773868218982,289,-1169,0,скакалка
1773868218982,289,-1017,0,скакалка
1773868218982,289,-1015,0,скакалка
1773868218982,289,-1174,0,скакалка
1773868218982,289,-1129,0,скакалка
1773868218982,289,-870,0,скакалка
1773868218982,289,-845,0,скакалка
1773868218982,289,-962,0,скакалка
1773868218982,289,-858,0,скакалка
1773868218982,289,-743,0,скакалка
1773868218982,289,-735,0,скакалка
1773868218982,289,-618,0,скакалка
1773868218982,289,-660,0,скакалка
1773868218982,289,-870,0,скакалка
1773868218995,289,-641,0,скакалка
1773868218995,289,-339,0,скакалка
1773868218995,289,-663,0,скакалка
1773868218995,289,-1027,0,скакалка
1773868218995,289,-987,0,скакалка
1773868218995,289,-945,0,скакалка
1773868218995,289,-997,0,скакалка
1773868218995,289,-1010,0,скакалка
1773868218995,289,-1045,0,скакалка
1773868218995,289,-1094,0,скакалка
1773868218995,289,-1087,0,скакалка
1773868218995,289,-1080,0,скакалка
1773868218995,289,-1112,0,скакалка
1773868218995,289,-1177,0,скакалка
1773868218995,289,-1189,0,скакалка
1773868218995,289,-1129,0,скакалка
1773868218995,289,-1139,0,скакалка
1773868218995,289,-1209,0,скакалка
1773868219003,289,-1252,0,скакалка
1773868219003,289,-1249,0,скакалка
1773868219003,289,-1202,0,скакалка
1773868219003,289,-1209,0,скакалка
1773868219003,289,-1264,0,скакалка
1773868219003,289,-1249,0,скакалка
1773868219003,289,-1212,0,скакалка
1773868219003,289,-1212,0,скакалка
1773868219003,289,-1197,0,скакалка
1773868219003,289,-1179,0,скакалка
1773868219003,289,-1202,0,скакалка
1773868219003,289,-1224,0,скакалка
1773868219003,289,-1217,0,скакалка
1773868219003,289,-1217,0,скакалка
1773868219003,289,-1222,0,скакалка
1773868219003,289,-1207,0,скакалка
1773868219003,289,-1187,0,скакалка
1773868219003,289,-1174,0,скакалка
1773868219010,289,-1167,0,скакалка
1773868219011,289,-1159,0,скакалка
1773868219011,289,-1139,0,скакалка
1773868219011,289,-1114,0,скакалка
1773868219045,288,-1114,0,скакалка
1773868219158,289,-1114,0,скакалка
1773868219258,369,-1114,0,скакалка
1773868219358,315,-1114,0,скакалка
1773868219442,301,-1114,0,скакалка
1773868219542,293,-1114,0,скакалка
1773868219561,293,-1104,0,скакалка
1773868219561,293,-1117,0,скакалка
1773868219561,293,-1117,0,скакалка
1773868219565,293,-1092,0,скакалка
1773868219565,293,-1072,0,скакалка
1773868219565,293,-1075,0,скакалка
1773868219565,293,-1082,0,скакалка
1773868219565,293,-1080,0,скакалка
1773868219565,293,-1077,0,скакалка
1773868219565,293,-1090,0,скакалка
1773868219565,293,-1124,0,скакалка
1773868219565,293,-1127,0,скакалка
1773868219565,293,-1080,0,скакалка
1773868219565,293,-1035,0,скакалка
1773868219565,293,-1010,0,скакалка
1773868219565,293,-1012,0,скакалка
1773868219565,293,-1000,0,скакалка
1773868219565,293,-945,0,скакалка
1773868219565,293,-900,0,скакалка
1773868219565,293,-863,0,скакалка
1773868219565,293,-860,0,скакалка
1773868219565,293,-962,0,скакалка
1773868219565,293,-980,0,скакалка
1773868219565,293,-798,0,скакалка
1773868219565,293,-606,0,скакалка
1773868219565,293,-429,0,скакалка
1773868219565,293,-314,0,скакалка
1773868219565,293,-259,0,скакалка
1773868219565,293,-92,0,скакалка
1773868219565,293,-192,0,скакалка
1773868219578,293,-608,0,скакалка
1773868219578,293,-825,0,скакалка
1773868219578,293,-947,0,скакалка
1773868219578,293,-1137,0,скакалка
1773868219578,293,-1214,0,скакалка
1773868219578,293,-1227,0,скакалка
1773868219578,293,-1272,0,скакалка
1773868219578,293,-1254,0,скакалка
1773868219578,293,-1129,0,скакалка
1773868219578,293,-1010,0,скакалка
1773868219578,293,-1055,0,скакалка
1773868219578,293,-1037,0,скакалка
1773868219578,293,-795,0,скакалка
1773868219578,293,-723,0,скакалка
1773868219578,293,-838,0,скакалка
1773868219578,293,-760,0,скакалка
1773868219586,293,-633,0,скакалка
1773868219586,293,-665,0,скакалка
1773868219586,293,-705,0,скакалка
1773868219586,293,-768,0,скакалка
1773868219586,293,-870,0,скакалка
1773868219586,293,-823,0,скакалка
1773868219586,293,-745,0,скакалка
1773868219586,293,-813,0,скакалка
1773868219586,293,-920,0,скакалка
1773868219586,293,-937,0,скакалка
1773868219586,293,-870,0,скакалка
1773868219586,293,-848,0,скакалка
1773868219586,293,-875,0,скакалка
1773868219586,293,-860,0,скакалка
1773868219586,293,-850,0,скакалка
1773868219586,293,-850,0,скакалка
1773868219586,293,-818,0,скакалка
1773868219586,293,-798,0,скакалка
1773868219594,293,-795,0,скакалка
1773868219594,293,-783,0,скакалка
1773868219594,293,-765,0,скакалка
1773868219594,293,-753,0,скакалка
1773868219594,293,-740,0,скакалка
1773868219594,293,-740,0,скакалка
1773868219594,293,-745,0,скакалка
1773868219594,293,-728,0,скакалка
1773868219594,293,-700,0,скакалка
1773868219652,290,-700,0,скакалка
1773868219750,289,-700,0,скакалка
1773868219841,291,-700,0,скакалка
1773868219941,297,-700,0,скакалка
1773868220041,288,-700,0,скакалка
1773868220094,288,-690,0,скакалка
1773868220094,288,-703,0,скакалка
1773868220104,288,-698,0,скакалка
1773868220104,288,-643,0,скакалка
1773868220104,288,-613,0,скакалка
1773868220104,288,-613,0,скакалка
1773868220104,288,-571,0,скакалка
1773868220104,288,-518,0,скакалка
1773868220104,288,-496,0,скакалка
1773868220104,288,-496,0,скакалка
1773868220104,288,-491,0,скакалка
1773868220104,288,-443,0,скакалка
1773868220104,288,-394,0,скакалка
1773868220110,288,-389,0,скакалка
1773868220110,288,-369,0,скакалка
1773868220110,288,-349,0,скакалка
1773868220110,288,-386,0,скакалка
1773868220110,288,-314,0,скакалка
1773868220110,288,-12,0,скакалка
1773868220110,288,296,0,скакалка
1773868220110,288,326,0,скакалка
1773868220110,288,316,0,скакалка
1773868220110,288,424,0,скакалка
1773868220110,288,174,0,скакалка
1773868220110,288,-207,0,скакалка
1773868220110,288,-244,0,скакалка
1773868220110,288,-339,0,скакалка
1773868220110,288,-730,0,скакалка
1773868220110,288,-1057,0,скакалка
1773868220110,288,-1090,0,скакалка
1773868220110,288,-982,0,скакалка
1773868220118,288,-940,0,скакалка
1773868220118,288,-925,0,скакалка
1773868220118,288,-870,0,скакалка
1773868220118,288,-848,0,скакалка
1773868220118,288,-877,0,скакалка
1773868220118,288,-882,0,скакалка
1773868220118,288,-823,0,скакалка
1773868220118,288,-750,0,скакалка
1773868220118,288,-738,0,скакалка
1773868220118,288,-733,0,скакалка
1773868220118,288,-683,0,скакалка
1773868220118,288,-643,0,скакалка
1773868220118,288,-616,0,скакалка
1773868220118,288,-556,0,скакалка
1773868220118,288,-558,0,скакалка
1773868220118,288,-606,0,скакалка
1773868220118,288,-576,0,скакалка
1773868220118,288,-498,0,скакалка
1773868220118,288,-471,0,скакалка
1773868220126,288,-538,0,скакалка
1773868220127,288,-683,0,скакалка
1773868220127,288,-790,0,скакалка
1773868220127,288,-753,0,скакалка
1773868220127,288,-730,0,скакалка
1773868220127,288,-855,0,скакалка
1773868220127,288,-835,0,скакалка
1773868220127,288,-586,0,скакалка
1773868220127,288,-369,0,скакалка
1773868220127,288,-144,0,скакалка
1773868220127,288,316,0,скакалка
1773868220127,288,1082,0,скакалка
1773868220127,288,1965,0,скакалка
1773868220127,288,2766,0,скакалка
1773868220127,288,3444,0,скакалка
1773868220127,288,3896,0,скакалка
1773868220127,288,4075,0,скакалка
1773868220127,288,4202,0,скакалка
1773868220135,288,4337,0,скакалка
1773868220135,288,4352,0,скакалка
1773868220135,288,4312,0,скакалка
1773868220135,288,4337,0,скакалка
1773868220135,288,4360,0,скакалка
1773868220145,287,4360,0,скакалка
1773868220250,288,4360,0,скакалка
1773868220349,294,4360,0,скакалка
1773868220459,314,4360,0,скакалка
1773868220542,301,4360,0,скакалка
1773868220656,289,4360,0,скакалка
1773868220685,289,4327,0,скакалка
1773868220688,289,4257,0,скакалка
1773868220688,289,4148,0,скакалка
1773868220688,289,4040,0,скакалка
1773868220688,289,3958,0,скакалка
1773868220688,289,3828,0,скакалка
1773868220688,289,3656,0,скакалка
1773868220688,289,3489,0,скакалка
1773868220688,289,3245,0,скакалка
1773868220688,289,2920,0,скакалка
1773868220688,289,2706,0,скакалка
1773868220688,289,2596,0,скакалка
1773868220688,289,2359,0,скакалка
1773868220693,289,2022,0,скакалка
1773868220693,289,1830,0,скакалка
1773868220695,289,1606,0,скакалка
1773868220695,289,1154,0,скакалка
1773868220695,289,755,0,скакалка
1773868220695,289,496,0,скакалка
1773868220695,289,229,0,скакалка
1773868220695,289,-54,0,скакалка
1773868220695,289,-344,0,скакалка
1773868220695,289,-648,0,скакалка
1773868220695,289,-980,0,скакалка
1773868220695,289,-1356,0,скакалка
1773868220695,289,-1731,0,скакалка
1773868220695,289,-2040,0,скакалка
1773868220695,289,-2297,0,скакалка
1773868220695,289,-2671,0,скакалка
1773868220695,289,-3225,0,скакалка
1773868220695,289,-3629,0,скакалка
1773868220695,289,-3706,0,скакалка
1773868220695,289,-3699,0,скакалка
1773868220695,289,-3634,0,скакалка
1773868220695,289,-3429,0,скакалка
1773868220695,289,-3304,0,скакалка
1773868220695,289,-3299,0,скакалка
1773868220695,289,-3240,0,скакалка
1773868220695,289,-3157,0,скакалка
1773868220695,289,-3077,0,скакалка
1773868220695,289,-2995,0,скакалка
1773868220695,289,-2910,0,скакалка
1773868220695,289,-2768,0,скакалка
1773868220695,289,-2671,0,скакалка
1773868220695,289,-2668,0,скакалка
1773868220695,289,-2571,0,скакалка
1773868220695,289,-2379,0,скакалка
1773868220695,289,-2322,0,скакалка
1773868220710,289,-2327,0,скакалка
1773868220710,289,-2234,0,скакалка
1773868220710,289,-2167,0,скакалка
1773868220710,289,-2152,0,скакалка
1773868220710,289,-2062,0,скакалка
1773868220710,289,-1990,0,скакалка
1773868220710,289,-1965,0,скакалка
1773868220710,289,-1875,0,скакалка
1773868220710,289,-1825,0,скакалка
1773868220710,289,-1890,0,скакалка
1773868220710,289,-1945,0,скакалка
1773868220710,289,-1928,0,скакалка
1773868220710,289,-1913,0,скакалка
1773868220710,289,-1885,0,скакалка
1773868220718,289,-1770,0,скакалка
1773868220718,289,-1711,0,скакалка
1773868220718,289,-1723,0,скакалка
1773868220718,289,-1671,0,скакалка
1773868220718,289,-1641,0,скакалка
1773868220718,289,-1678,0,скакалка
1773868220718,289,-1658,0,скакалка
1773868220718,289,-1616,0,скакалка
1773868220718,289,-1586,0,скакалка
1773868220718,289,-1536,0,скакалка
1773868220718,289,-1553,0,скакалка
1773868220751,285,-1553,0,скакалка
1773868220850,285,-1553,0,скакалка
1773868220940,286,-1553,0,скакалка
1773868221049,282,-1553,0,скакалка
1773868221142,282,-1553,0,скакалка
1773868221219,282,-1636,0,скакалка
1773868221219,282,-1598,0,скакалка
1773868221228,282,-1366,0,скакалка
1773868221228,282,-1072,0,скакалка
1773868221228,282,-905,0,скакалка
1773868221229,282,-835,0,скакалка
1773868221230,282,-885,0,скакалка
1773868221230,282,-1177,0,скакалка
1773868221230,282,-1444,0,скакалка
1773868221230,282,-1471,0,скакалка
1773868221230,282,-1454,0,скакалка
1773868221230,282,-1486,0,скакалка
1773868221230,282,-1484,0,скакалка
1773868221230,282,-1454,0,скакалка
1773868221230,282,-1441,0,скакалка
1773868221230,282,-1411,0,скакалка
1773868221230,282,-1389,0,скакалка
1773868221230,282,-1401,0,скакалка
1773868221230,282,-1391,0,скакалка
1773868221230,282,-1376,0,скакалка
1773868221230,282,-1369,0,скакалка
1773868221230,282,-1326,0,скакалка
1773868221230,282,-1292,0,скакалка
1773868221230,282,-1294,0,скакалка
1773868221230,282,-1312,0,скакалка
1773868221230,282,-1334,0,скакалка
1773868221230,282,-1314,0,скакалка
1773868221230,282,-1264,0,скакалка
1773868221230,282,-1249,0,скакалка
1773868221230,282,-1234,0,скакалка
1773868221230,282,-1182,0,скакалка
1773868221230,282,-1167,0,скакалка
1773868221230,282,-1182,0,скакалка
1773868221230,282,-1144,0,скакалка
1773868221230,282,-1129,0,скакалка
1773868221230,282,-1172,0,скакалка
1773868221230,282,-1179,0,скакалка
1773868221244,282,-1167,0,скакалка
1773868221244,282,-1204,0,скакалка
1773868221244,282,-1242,0,скакалка
1773868221244,282,-1224,0,скакалка
1773868221244,282,-1212,0,скакалка
1773868221244,282,-1244,0,скакалка
1773868221244,282,-1247,0,скакалка
1773868221244,282,-1214,0,скакалка
1773868221244,282,-1214,0,скакалка
1773868221244,282,-1252,0,скакалка
1773868221244,282,-1234,0,скакалка
1773868221244,282,-1159,0,скакалка
1773868221244,282,-1139,0,скакалка
1773868221244,282,-1127,0,скакалка
1773868221252,282,-1065,0,скакалка
1773868221252,282,-1007,0,скакалка
1773868221252,282,-955,0,скакалка
1773868221252,282,-920,0,скакалка
1773868221252,282,-942,0,скакалка
1773868221252,282,-965,0,скакалка
1773868221252,282,-932,0,скакалка
1773868221252,282,-922,0,скакалка
1773868221252,282,-962,0,скакалка
1773868221252,282,-1002,0,скакалка
1773868221252,282,-1050,0,скакалка
1773868221252,282,-1132,0,скакалка
1773868221252,282,-1224,0,скакалка
1773868221252,282,-1179,0,скакалка
1773868221252,282,-775,0,скакалка
1773868221252,282,-217,0,скакалка
1773868221252,282,-4,0,скакалка
1773868221252,282,0,0,скакалка
1773868221260,282,84,0,скакалка
1773868221260,282,9,0,скакалка
1773868221260,282,-109,0,скакалка
1773868221260,282,-17,0,скакалка
1773868221260,280,-17,0,скакалка
1773868221350,279,-17,0,скакалка
1773868221460,280,-17,0,скакалка
1773868221542,281,-17,0,скакалка
1773868221649,279,-17,0,скакалка
1773868221751,278,-17,0,скакалка
1773868221761,278,87,0,скакалка
1773868221761,278,77,0,скакалка
1773868221761,278,79,0,скакалка
1773868221761,278,114,0,скакалка
1773868221761,278,127,0,скакалка
1773868221761,278,104,0,скакалка
1773868221761,278,54,0,скакалка
1773868221761,278,2,0,скакалка
1773868221761,278,-42,0,скакалка
1773868221761,278,-112,0,скакалка
1773868221761,278,-179,0,скакалка
1773868221761,278,-217,0,скакалка
1773868221761,278,-251,0,скакалка
1773868221761,278,-284,0,скакалка
1773868221761,278,-299,0,скакалка
1773868221761,278,-331,0,скакалка
1773868221761,278,-386,0,скакалка
1773868221761,278,-421,0,скакалка
1773868221761,278,-446,0,скакалка
1773868221761,278,-521,0,скакалка
1773868221761,278,-606,0,скакалка
1773868221776,278,-656,0,скакалка
1773868221776,278,-728,0,скакалка
1773868221776,278,-818,0,скакалка
1773868221776,278,-845,0,скакалка
1773868221776,278,-858,0,скакалка
1773868221776,278,-902,0,скакалка
1773868221776,278,-950,0,скакалка
1773868221776,278,-1002,0,скакалка
1773868221776,278,-1085,0,скакалка
1773868221776,278,-1207,0,скакалка
1773868221776,278,-1396,0,скакалка
1773868221776,278,-1558,0,скакалка
1773868221776,278,-1611,0,скакалка
1773868221776,278,-1638,0,скакалка
1773868221776,278,-1706,0,скакалка
1773868221776,278,-1696,0,скакалка
1773868221776,278,-1613,0,скакалка
1773868221776,278,-1576,0,скакалка
1773868221776,278,-1571,0,скакалка
1773868221776,278,-1591,0,скакалка
1773868221776,278,-1623,0,скакалка
1773868221776,278,-1591,0,скакалка
1773868221776,278,-1506,0,скакалка
1773868221776,278,-1436,0,скакалка
1773868221776,278,-1426,0,скакалка
1773868221776,278,-1429,0,скакалка
1773868221776,278,-1354,0,скакалка
1773868221776,278,-1254,0,скакалка
1773868221776,278,-1219,0,скакалка
1773868221792,278,-1184,0,скакалка
1773868221792,278,-1132,0,скакалка
1773868221793,278,-1159,0,скакалка
1773868221794,278,-1232,0,скакалка
1773868221794,278,-1119,0,скакалка
1773868221794,278,-768,0,скакалка
1773868221794,278,-493,0,скакалка
1773868221794,278,-511,0,скакалка
1773868221794,278,-558,0,скакалка
1773868221794,278,-538,0,скакалка
1773868221794,278,-760,0,скакалка
1773868221794,278,-1042,0,скакалка
1773868221794,278,-1082,0,скакалка
1773868221794,278,-1085,0,скакалка
1773868221794,278,-1134,0,скакалка
1773868221794,278,-1124,0,скакалка
1773868221794,278,-1102,0,скакалка
1773868221794,278,-1102,0,скакалка
1773868221794,278,-1080,0,скакалка
1773868221794,278,-1072,0,скакалка
1773868221794,278,-1092,0,скакалка
1773868221794,278,-1082,0,скакалка
1773868221794,278,-1057,0,скакалка
1773868221860,277,-1057,0,скакалка
1773868221958,276,-1057,0,скакалка
1773868222065,278,-1057,0,скакалка
1773868222191,355,-1057,0,скакалка
1773868222251,300,-1057,0,скакалка
1773868222341,300,-1052,0,скакалка
1773868222341,300,-1055,0,скакалка
1773868222354,300,-1060,0,скакалка
1773868222354,300,-1057,0,скакалка
1773868222354,300,-1047,0,скакалка
1773868222354,300,-1042,0,скакалка
1773868222354,300,-1032,0,скакалка
1773868222354,300,-1005,0,скакалка
1773868222354,300,-1002,0,скакалка
1773868222354,300,-1035,0,скакалка
1773868222354,300,-1032,0,скакалка
1773868222354,300,-1017,0,скакалка
1773868222354,300,-1045,0,скакалка
1773868222360,300,-1057,0,скакалка
1773868222360,300,-1032,0,скакалка
1773868222360,300,-1007,0,скакалка
1773868222360,300,-1010,0,скакалка
1773868222360,300,-992,0,скакалка
1773868222360,300,-932,0,скакалка
1773868222360,300,-912,0,скакалка
1773868222360,300,-912,0,скакалка
1773868222360,300,-885,0,скакалка
1773868222360,300,-877,0,скакалка
1773868222360,300,-853,0,скакалка
1773868222360,300,-778,0,скакалка
1773868222360,300,-690,0,скакалка
1773868222360,300,-618,0,скакалка
1773868222360,300,-583,0,скакалка
1773868222360,300,-566,0,скакалка
1773868222360,300,-548,0,скакалка
1773868222360,300,-561,0,скакалка
1773868222368,300,-566,0,скакалка
1773868222368,300,-523,0,скакалка
1773868222368,300,-546,0,скакалка
1773868222368,300,-710,0,скакалка
1773868222368,300,-885,0,скакалка
1773868222368,300,-947,0,скакалка
1773868222368,300,-992,0,скакалка
1773868222368,300,-1045,0,скакалка
1773868222368,300,-1030,0,скакалка
1773868222368,300,-980,0,скакалка
1773868222368,300,-947,0,скакалка
1773868222368,300,-950,0,скакалка
1773868222368,300,-1007,0,скакалка
1773868222368,300,-1060,0,скакалка
1773868222368,300,-920,0,скакалка
1773868222368,300,-471,0,скакалка
1773868222368,300,-29,0,скакалка
1773868222368,300,-12,0,скакалка
1773868222376,300,-117,0,скакалка
1773868222377,300,-79,0,скакалка
1773868222377,300,-296,0,скакалка
1773868222377,300,-601,0,скакалка
1773868222377,300,-673,0,скакалка
1773868222377,300,-710,0,скакалка
1773868222377,300,-695,0,скакалка
1773868222377,300,-641,0,скакалка
1773868222377,300,-678,0,скакалка
1773868222377,300,-718,0,скакалка
1773868222377,300,-743,0,скакалка
1773868222377,300,-760,0,скакалка
1773868222377,300,-713,0,скакалка
1773868222377,300,-718,0,скакалка
1773868222377,300,-823,0,скакалка
1773868222377,300,-810,0,скакалка
1773868222377,300,-656,0,скакалка
1773868222377,300,-414,0,скакалка
1773868222377,300,17,0,скакалка
1773868222385,300,598,0,скакалка
1773868222385,300,1244,0,скакалка
1773868222385,300,1900,0,скакалка
1773868222385,300,2416,0,скакалка
1773868222385,300,2768,0,скакалка
1773868222385,284,2768,0,скакалка
1773868222444,279,2768,0,скакалка
1773868222534,276,2768,0,скакалка
1773868222649,277,2768,0,скакалка
1773868222749,275,2768,0,скакалка
1773868222850,276,2768,0,скакалка
1773868222934,276,3070,0,скакалка
1773868222934,276,3292,0,скакалка
1773868222934,276,3389,0,скакалка
1773868222934,276,3412,0,скакалка
1773868222934,276,3412,0,скакалка
1773868222934,276,3409,0,скакалка
1773868222934,276,3394,0,скакалка
1773868222934,276,3344,0,скакалка
1773868222934,276,3282,0,скакалка
1773868222934,276,3227,0,скакалка
1773868222934,276,3157,0,скакалка
1773868222934,276,3085,0,скакалка
1773868222942,276,3045,0,скакалка
1773868222942,276,2978,0,скакалка
1773868222943,276,2863,0,скакалка
1773868222943,276,2811,0,скакалка
1773868222944,276,2798,0,скакалка
1773868222944,276,2696,0,скакалка
1773868222944,276,2581,0,скакалка
1773868222944,276,2541,0,скакалка
1773868222944,276,2459,0,скакалка
1773868222944,276,2309,0,скакалка
1773868222944,276,2177,0,скакалка
1773868222944,276,2067,0,скакалка
1773868222944,276,1963,0,скакалка
1773868222944,276,1840,0,скакалка
1773868222944,276,1688,0,скакалка
1773868222944,276,1501,0,скакалка
1773868222944,276,1222,0,скакалка
1773868222944,276,798,0,скакалка
1773868222944,276,279,0,скакалка
1773868222944,276,-254,0,скакалка
1773868222944,276,-738,0,скакалка
1773868222944,276,-1287,0,скакалка
1773868222944,276,-2227,0,скакалка
1773868222944,276,-3342,0,скакалка
1773868222944,276,-3811,0,скакалка
1773868222944,276,-3559,0,скакалка
1773868222944,276,-3167,0,скакалка
1773868222944,276,-2903,0,скакалка
1773868222944,276,-2853,0,скакалка
1773868222944,276,-2821,0,скакалка
1773868222944,276,-2776,0,скакалка
1773868222944,276,-2998,0,скакалка
1773868222944,276,-3152,0,скакалка
1773868222944,276,-3008,0,скакалка
1773868222944,276,-2878,0,скакалка
1773868222944,276,-2793,0,скакалка
1773868222944,276,-2646,0,скакалка
1773868222944,276,-2521,0,скакалка
1773868222959,276,-2444,0,скакалка
1773868222959,276,-2382,0,скакалка
1773868222961,276,-2294,0,скакалка
1773868222961,276,-2167,0,скакалка
1773868222961,276,-2095,0,скакалка
1773868222961,276,-2095,0,скакалка
1773868222961,276,-2047,0,скакалка
1773868222961,276,-1935,0,скакалка
1773868222961,276,-1868,0,скакалка
1773868222961,276,-1850,0,скакалка
1773868222961,276,-1815,0,скакалка
1773868222961,276,-1780,0,скакалка
1773868222961,276,-1728,0,скакалка
1773868222961,276,-1696,0,скакалка
1773868222961,276,-1713,0,скакалка
1773868222961,276,-1648,0,скакалка
1773868222961,276,-1501,0,скакалка
1773868222961,276,-1379,0,скакалка
1773868222961,276,-1269,0,скакалка
1773868222969,276,-1157,0,скакалка
1773868222969,276,-1047,0,скакалка
1773868222969,276,-935,0,скакалка
1773868222969,276,-810,0,скакалка
1773868222969,276,-810,0,скакалка
1773868223081,276,-810,0,скакалка
1773868223144,280,-810,0,скакалка
1773868223241,276,-810,0,скакалка
1773868223341,276,-810,0,скакалка
1773868223483,277,-810,0,скакалка
1773868223543,276,-810,0,скакалка
1773868223561,276,-675,0,скакалка
1773868223561,276,-573,0,скакалка
1773868223561,276,-498,0,скакалка
1773868223569,276,-446,0,скакалка
1773868223569,276,-424,0,скакалка
1773868223569,276,-366,0,скакалка
1773868223569,276,-286,0,скакалка
1773868223569,276,-217,0,скакалка
1773868223569,276,-127,0,скакалка
1773868223569,276,-37,0,скакалка
1773868223569,276,39,0,скакалка
1773868223569,276,112,0,скакалка
1773868223569,276,202,0,скакалка
1773868223569,276,316,0,скакалка
1773868223569,276,411,0,скакалка
1773868223569,276,458,0,скакалка
1773868223569,276,498,0,скакалка
1773868223569,276,596,0,скакалка
1773868223576,276,728,0,скакалка
1773868223576,276,800,0,скакалка
1773868223576,276,838,0,скакалка
1773868223576,276,885,0,скакалка
1773868223576,276,915,0,скакалка
1773868223576,276,960,0,скакалка
1773868223576,276,1075,0,скакалка
1773868223576,276,1242,0,скакалка
1773868223576,276,1416,0,скакалка
1773868223576,276,1519,0,скакалка
1773868223576,276,1533,0,скакалка
1773868223576,276,1623,0,скакалка
1773868223576,276,1810,0,скакалка
1773868223576,276,1631,0,скакалка
1773868223576,276,793,0,скакалка
1773868223576,276,-254,0,скакалка
1773868223576,276,-1167,0,скакалка
1773868223584,276,-1885,0,скакалка
1773868223584,276,-2214,0,скакалка
1773868223584,276,-2262,0,скакалка
1773868223584,276,-2262,0,скакалка
1773868223584,276,-2224,0,скакалка
1773868223584,276,-2170,0,скакалка
1773868223584,276,-2085,0,скакалка
1773868223584,276,-1953,0,скакалка
1773868223584,276,-1825,0,скакалка
1773868223584,276,-1731,0,скакалка
1773868223584,276,-1633,0,скакалка
1773868223584,276,-1511,0,скакалка
1773868223584,276,-1401,0,скакалка
1773868223584,276,-1336,0,скакалка
1773868223584,276,-1314,0,скакалка
1773868223584,276,-1269,0,скакалка
1773868223584,276,-1134,0,скакалка
1773868223584,276,-1070,0,скакалка
1773868223592,276,-1107,0,скакалка
1773868223593,276,-1045,0,скакалка
1773868223593,276,-950,0,скакалка
1773868223593,276,-975,0,скакалка
1773868223593,276,-1005,0,скакалка
1773868223593,276,-952,0,скакалка
1773868223593,276,-912,0,скакалка
1773868223593,276,-932,0,скакалка
1773868223593,276,-970,0,скакалка
1773868223593,276,-972,0,скакалка
1773868223593,276,-922,0,скакалка
1773868223593,276,-865,0,скакалка
1773868223593,276,-803,0,скакалка
1773868223593,276,-685,0,скакалка
1773868223593,276,-566,0,скакалка
1773868223593,276,-483,0,скакалка
1773868223593,276,-399,0,скакалка
1773868223593,276,-324,0,скакалка
1773868223601,276,-261,0,скакалка
1773868223601,276,-187,0,скакалка
1773868223643,276,-187,0,скакалка
1773868223742,277,-187,0,скакалка
1773868223857,368,-187,0,скакалка
1773868223957,306,-187,0,скакалка
1773868224010,306,-139,0,скакалка
1773868224010,306,-104,0,скакалка
1773868224010,306,-59,0,скакалка
1773868224018,306,-62,0,скакалка
1773868224019,306,-74,0,скакалка
1773868224019,306,-27,0,скакалка
1773868224019,306,-7,0,скакалка
1773868224019,306,-34,0,скакалка
1773868224019,306,-37,0,скакалка
1773868224019,306,7,0,скакалка
1773868224019,306,89,0,скакалка
1773868224019,306,167,0,скакалка
1773868224019,306,194,0,скакалка
1773868224019,306,192,0,скакалка
1773868224019,306,199,0,скакалка
1773868224019,306,249,0,скакалка
1773868224019,306,329,0,скакалка
1773868224019,306,364,0,скакалка
1773868224026,306,386,0,скакалка
1773868224026,306,443,0,скакалка
1773868224026,306,486,0,скакалка
1773868224026,306,558,0,скакалка
1773868224026,306,823,0,скакалка
1773868224026,306,1214,0,скакалка
1773868224026,306,1394,0,скакалка
1773868224026,306,1359,0,скакалка
1773868224026,306,1307,0,скакалка
1773868224026,306,1142,0,скакалка
1773868224026,306,962,0,скакалка
1773868224026,306,940,0,скакалка
1773868224026,306,927,0,скакалка
1773868224026,306,778,0,скакалка
1773868224026,306,379,0,скакалка
1773868224026,306,-274,0,скакалка
1773868224034,306,-972,0,скакалка
1773868224034,306,-1381,0,скакалка
1773868224034,306,-1436,0,скакалка
1773868224034,306,-1421,0,скакалка
1773868224034,306,-1444,0,скакалка
1773868224034,306,-1386,0,скакалка
1773868224034,306,-1316,0,скакалка
1773868224034,306,-1294,0,скакалка
1773868224034,306,-1212,0,скакалка
1773868224034,306,-1087,0,скакалка
1773868224034,306,-1027,0,скакалка
1773868224034,306,-1000,0,скакалка
1773868224034,306,-935,0,скакалка
1773868224034,306,-860,0,скакалка
1773868224034,306,-838,0,скакалка
1773868224034,306,-800,0,скакалка
1773868224034,306,-760,0,скакалка
1773868224042,306,-780,0,скакалка
1773868224042,306,-755,0,скакалка
1773868224043,306,-718,0,скакалка
1773868224043,306,-710,0,скакалка
1773868224043,306,-663,0,скакалка
1773868224043,306,-638,0,скакалка
1773868224043,306,-656,0,скакалка
1773868224043,306,-643,0,скакалка
1773868224043,306,-658,0,скакалка
1773868224043,306,-730,0,скакалка
1773868224043,306,-720,0,скакалка
1773868224043,306,-658,0,скакалка
1773868224043,306,-670,0,скакалка
1773868224043,306,-628,0,скакалка
1773868224043,306,-476,0,скакалка
1773868224043,306,-359,0,скакалка
1773868224043,306,-261,0,скакалка
1773868224043,306,-124,0,скакалка
1773868224043,306,-22,0,скакалка
1773868224043,306,19,0,скакалка
1773868224051,306,77,0,скакалка
1773868224051,306,144,0,скакалка
1773868224051,287,144,0,скакалка
1773868224149,281,144,0,скакалка
1773868224249,278,144,0,скакалка
1773868224348,279,144,0,скакалка
1773868224449,276,144,0,скакалка
1773868224549,277,144,0,скакалка
1773868224601,277,189,0,скакалка
1773868224601,277,246,0,скакалка
1773868224601,277,321,0,скакалка
1773868224601,277,389,0,скакалка
1773868224601,277,424,0,скакалка
1773868224601,277,404,0,скакалка
1773868224605,277,369,0,скакалка
1773868224605,277,376,0,скакалка
1773868224605,277,404,0,скакалка
1773868224605,277,409,0,скакалка
1773868224605,277,401,0,скакалка
1773868224605,277,371,0,скакалка
1773868224605,277,321,0,скакалка
1773868224609,277,351,0,скакалка
1773868224609,277,568,0,скакалка
1773868224609,277,947,0,скакалка
1773868224609,277,1209,0,скакалка
1773868224609,277,1189,0,скакалка
1773868224609,277,1070,0,скакалка
1773868224609,277,855,0,скакалка
1773868224609,277,586,0,скакалка
1773868224609,277,481,0,скакалка
1773868224609,277,488,0,скакалка
1773868224609,277,458,0,скакалка
1773868224609,277,409,0,скакалка
1773868224609,277,389,0,скакалка
1773868224609,277,381,0,скакалка
1773868224609,277,344,0,скакалка
1773868224609,277,256,0,скакалка
1773868224609,277,132,0,скакалка
1773868224617,277,9,0,скакалка
1773868224617,277,-199,0,скакалка
1773868224617,277,-606,0,скакалка
1773868224617,277,-1020,0,скакалка
1773868224617,277,-1179,0,скакалка
1773868224617,277,-1104,0,скакалка
1773868224617,277,-1030,0,скакалка
1773868224617,277,-1040,0,скакалка
1773868224617,277,-990,0,скакалка
1773868224617,277,-875,0,скакалка
1773868224617,277,-860,0,скакалка
1773868224617,277,-900,0,скакалка
1773868224617,277,-840,0,скакалка
1773868224617,277,-745,0,скакалка
1773868224617,277,-700,0,скакалка
1773868224617,277,-690,0,скакалка
1773868224617,277,-720,0,скакалка
1773868224617,277,-745,0,скакалка
